r(A) ,   X_ray-calc  ,   X_ray_exp_renorm
   2.0000000000000000E-002  ,   -2.6901783043356589       ,   -4.4837324789950106     
   4.0000000000000001E-002  ,   -2.7071974768906313       ,   -4.4600746845869343     
   5.9999999999999998E-002  ,   -2.7347802142576927       ,   -4.4211768399458249     
   8.0000000000000002E-002  ,   -2.7717867882761409       ,   -4.3678238928697182     
  0.10000000000000001       ,   -2.8166883244595757       ,   -4.3010895310666495     
  0.12000000000000001       ,   -2.8676302257870265       ,   -4.2223116441964814     
  0.13999999999999999       ,   -2.9225091269333738       ,   -4.1330617602918638     
  0.16000000000000000       ,   -2.9790601983324758       ,   -4.0351091667416172     
  0.17999999999999999       ,   -3.0349511907601161       ,   -3.9303805524092543     
  0.19999999999999998       ,   -3.0878793311166257       ,   -3.8209161157113281     
  0.22000000000000000       ,   -3.1356670603373318       ,   -3.7088231709526980     
  0.23999999999999999       ,   -3.1763526498276424       ,   -3.5962283496332601     
  0.26000000000000001       ,   -3.2082719416772396       ,   -3.4852295329227276     
  0.28000000000000003       ,   -3.2301278216026468       ,   -3.3778486646469816     
  0.30000000000000004       ,   -3.2410445371806258       ,   -3.2759865800691181     
  0.32000000000000001       ,   -3.2406045967902588       ,   -3.1813809441875756     
  0.34000000000000002       ,   -3.2288667012054004       ,   -3.0955683245525973     
  0.36000000000000004       ,   -3.2063639405392372       ,   -3.0198513287182540     
  0.38000000000000000       ,   -3.1740823021705427       ,   -2.9552716170762103     
  0.40000000000000002       ,   -3.1334203469797046       ,   -2.9025894603219307     
  0.42000000000000004       ,   -3.0861316883461227       ,   -2.8622703502027207     
  0.44000000000000000       ,   -3.0342526189747425       ,   -2.8344789961363492     
  0.46000000000000002       ,   -2.9800178455241557       ,   -2.8190808529723097     
  0.48000000000000004       ,   -2.9257677849224715       ,   -2.8156511312746266     
  0.50000000000000000       ,   -2.8738512288586846       ,   -2.8234910460768377     
  0.52000000000000002       ,   -2.8265273796978927       ,   -2.8416508683801984     
  0.54000000000000004       ,   -2.7858712938435874       ,   -2.8689591611047782     
  0.56000000000000005       ,   -2.7536866359296486       ,   -2.9040574130655972     
  0.58000000000000007       ,   -2.7314293545095332       ,   -2.9454391359015766     
  0.59999999999999998       ,   -2.7201454490103969       ,   -2.9914923643954912     
  0.62000000000000000       ,   -2.7204254265815853       ,   -3.0405444043828260     
  0.64000000000000001       ,   -2.7323773693579620       ,   -3.0909076078156099     
  0.66000000000000003       ,   -2.7556197752100324       ,   -3.1409249240241643     
  0.68000000000000005       ,   -2.7892945291290059       ,   -3.1890139813123124     
  0.70000000000000007       ,   -2.8320995408277860       ,   -3.2337084941723719     
  0.72000000000000008       ,   -2.8823397803879884       ,   -3.2736958679309351     
  0.73999999999999999       ,   -2.9379946905681416       ,   -3.3078499827078667     
  0.76000000000000001       ,   -2.9967992823552780       ,   -3.3352582792512928     
  0.78000000000000003       ,   -3.0563356568184061       ,   -3.3552424365092612     
  0.80000000000000004       ,   -3.1141312642057715       ,   -3.3673721197802791     
  0.82000000000000006       ,   -3.1677599280623969       ,   -3.3714714832197603     
  0.84000000000000008       ,   -3.2149415394102050       ,   -3.3676183250134959     
  0.85999999999999999       ,   -3.2536363686979843       ,   -3.3561360108989926     
  0.88000000000000000       ,   -3.2821301495458624       ,   -3.3375784949695064     
  0.90000000000000002       ,   -3.2991064499116831       ,   -3.3127089689430536     
  0.92000000000000004       ,   -3.3037033485543188       ,   -3.2824728557286531     
  0.94000000000000006       ,   -3.2955520572566837       ,   -3.2479660241302390     
  0.96000000000000008       ,   -3.2747958470672160       ,   -3.2103992336188112     
  0.97999999999999998       ,   -3.2420884208929279       ,   -3.1710599169723936     
   1.0000000000000000       ,   -3.1985716935860204       ,   -3.1312724710656323     
   1.0200000000000000       ,   -3.1458337613316631       ,   -3.0923582502938829     
   1.0400000000000000       ,   -3.0858486317941844       ,   -3.0555964424950428     
   1.0600000000000001       ,   -3.0209000135701882       ,   -3.0221869546243498     
   1.0800000000000001       ,   -2.9534920990884648       ,   -2.9932163470448194     
   1.1000000000000001       ,   -2.8862507940082902       ,   -2.9696277346016400     
   1.1200000000000001       ,   -2.8218192279816861       ,   -2.9521954243005877     
   1.1400000000000001       ,   -2.7627516115088304       ,   -2.9415048890396807     
   1.1600000000000001       ,   -2.7114095728197629       ,   -2.9379384908564932     
   1.1799999999999999       ,   -2.6698650150112675       ,   -2.9416671724826684     
   1.2000000000000000       ,   -2.6398132813323927       ,   -2.9526481398311391     
   1.2200000000000000       ,   -2.6225000161389520       ,   -2.9706283675449177     
   1.2400000000000000       ,   -2.6186645770758448       ,   -2.9951535817645425     
   1.2600000000000000       ,   -2.6285022121107273       ,   -3.0255822150994081     
   1.2800000000000000       ,   -2.6516464890065374       ,   -3.0611036938625724     
   1.3000000000000000       ,   -2.6871726837544196       ,   -3.1007603113479369     
   1.3200000000000001       ,   -2.7336220294682314       ,   -3.1434718664705463     
   1.3400000000000001       ,   -2.7890459300864681       ,   -3.1880622062900370     
   1.3600000000000001       ,   -2.8510684852162074       ,   -3.2332868042138796     
   1.3800000000000001       ,   -2.9169649830722451       ,   -3.2778605320342824     
   1.4000000000000001       ,   -2.9837534242385058       ,   -3.3204848410232946     
   1.4200000000000002       ,   -3.0482956624270781       ,   -3.3598736514727747     
   1.4399999999999999       ,   -3.1074044071826625       ,   -3.3947773566096200     
   1.4600000000000000       ,   -3.1579521396843275       ,   -3.4240044701519405     
   1.4800000000000000       ,   -3.1969779525727127       ,   -3.4464405806924376     
   1.5000000000000000       ,   -3.2217884380534940       ,   -3.4610644140480962     
   1.5200000000000000       ,   -3.2300490092797003       ,   -3.4669609401096935     
   1.5400000000000000       ,   -3.2198624362890018       ,   -3.4633315872241499     
   1.5600000000000001       ,   -3.1898318924181690       ,   -3.4495017389628853     
   1.5800000000000001       ,   -3.1391064184920405       ,   -3.4249257802994566     
   1.6000000000000001       ,   -3.0674073949756817       ,   -3.3891900288211931     
   1.6200000000000001       ,   -2.9750353389638637       ,   -3.3420139289423827     
   1.6400000000000001       ,   -2.8628570842800065       ,   -3.2832499018505077     
   1.6600000000000001       ,   -2.7322741298172128       ,   -3.2128822312069891     
   1.6800000000000002       ,   -2.5851736253448818       ,   -3.1310253259817715     
   1.7000000000000000       ,   -2.4238640792358090       ,   -3.0379216401326725     
   1.7200000000000000       ,   -2.2509983960226259       ,   -2.9339394482863983     
   1.7400000000000000       ,   -2.0694872645034383       ,   -2.8195705823242929     
   1.7600000000000000       ,   -1.8824062051762052       ,   -2.6954281318035651     
   1.7800000000000000       ,   -1.6928997402381551       ,   -2.5622440079475712     
   1.8000000000000000       ,   -1.5040861669228756       ,   -2.4208661732049062     
   1.8200000000000001       ,   -1.3189662978221151       ,   -2.2722552526523305     
   1.8400000000000001       ,   -1.1403392877016207       ,   -2.1174801758761141     
   1.8600000000000001       ,  -0.97072830780536334       ,   -1.9577124536881960     
   1.8800000000000001       ,  -0.81231837275922392       ,   -1.7942186773142803     
   1.9000000000000001       ,  -0.66690809254367589       ,   -1.6283508413944878     
   1.9200000000000002       ,  -0.53587653589276030       ,   -1.4615341376097983     
   1.9399999999999999       ,  -0.42016577685029116       ,   -1.2952519426884639     
   1.9600000000000000       ,  -0.32027907862869959       ,   -1.1310278309669737     
   1.9800000000000000       ,  -0.23629407345163414       ,  -0.97040457392409607     
   2.0000000000000000       ,  -0.16788974728708922       ,  -0.81492024196851032     
   2.0200000000000000       ,  -0.11438555539353112       ,  -0.66608169066551348     
   2.0400000000000000       ,   -7.4790596205397727E-002  ,  -0.52533588685374866     
   2.0600000000000001       ,   -4.7860471089117326E-002  ,  -0.39403970125483290     
   2.0800000000000001       ,   -3.2159265235667971E-002  ,  -0.27342895432099601     
   2.1000000000000001       ,   -2.6124004963252061E-002  ,  -0.16458764228222797     
   2.1200000000000001       ,   -2.8128978651804071E-002  ,   -6.8418382125680868E-002
   2.1400000000000001       ,   -3.6547447329174559E-002  ,    1.4384810135315253E-002
   2.1600000000000001       ,   -4.9808507052929260E-002  ,    8.3360260557607882E-002
   2.1800000000000002       ,   -6.6447185229075098E-002  ,   0.13829776495070478     
   2.2000000000000002       ,   -8.5146240168782583E-002  ,   0.17925203552775806     
   2.2200000000000002       ,  -0.10476856833467448       ,   0.20654951559960388     
   2.2400000000000002       ,  -0.12437958612873526       ,   0.22078777828947499     
   2.2600000000000002       ,  -0.14325942136044009       ,   0.22282693873105042     
   2.2800000000000002       ,  -0.16090520267481773       ,   0.21377276338680584     
   2.3000000000000003       ,  -0.17702415344243841       ,   0.19495144697605848     
   2.3200000000000003       ,  -0.19151856225755021       ,   0.16787633714792180     
   2.3399999999999999       ,  -0.20446400045712856       ,   0.13420720804966971     
   2.3599999999999999       ,  -0.21608237663288116       ,    9.5703003778376733E-002
   2.3799999999999999       ,  -0.22671155154167638       ,    5.4169278173045614E-002
   2.3999999999999999       ,  -0.23677328088602131       ,    1.1401835199029568E-002
   2.4199999999999999       ,  -0.24674120913528516       ,   -3.0871688571661518E-002
   2.4399999999999999       ,  -0.25711051001583873       ,   -7.1050373045185980E-002
   2.4600000000000000       ,  -0.26837056745313442       ,  -0.10771664683824365     
   2.4800000000000000       ,  -0.28098182687805529       ,  -0.13968890323109387     
   2.5000000000000000       ,  -0.29535763590695424       ,  -0.16606802632909659     
   2.5200000000000000       ,  -0.31185155243532903       ,  -0.18627585981090164     
   2.5400000000000000       ,  -0.33075024526808655       ,  -0.20008383651307723     
   2.5600000000000001       ,  -0.35227176594522647       ,  -0.20763024978677233     
   2.5800000000000001       ,  -0.37656864822140440       ,  -0.20942498071853563     
   2.6000000000000001       ,  -0.40373501010163454       ,  -0.20634088954228297     
   2.6200000000000001       ,  -0.43381660660630211       ,  -0.19959152269410887     
   2.6400000000000001       ,  -0.46682262086127074       ,  -0.19069526436723913     
   2.6600000000000001       ,  -0.50273789462349128       ,  -0.18142655656720444     
   2.6800000000000002       ,  -0.54153429115133256       ,  -0.17375530664790298     
   2.7000000000000002       ,  -0.58317995366210729       ,  -0.16977607752346702     
   2.7200000000000002       ,  -0.62764536779366309       ,  -0.17162909459432696     
   2.7400000000000002       ,  -0.67490534903714694       ,  -0.18141548701429136     
   2.7600000000000002       ,  -0.72493634515412841       ,  -0.20110949281581894     
   2.7800000000000002       ,  -0.77770875534742478       ,  -0.23247058328339648     
   2.8000000000000003       ,  -0.83317430637892631       ,  -0.27695859024538461     
   2.8200000000000003       ,  -0.89124887337557634       ,  -0.33565494234504639     
   2.8399999999999999       ,  -0.95179147151821697       ,  -0.40919302825084825     
   2.8599999999999999       ,   -1.0145804561376999       ,  -0.49770050555762346     
   2.8799999999999999       ,   -1.0792882359672586       ,  -0.60075606732304332     
   2.8999999999999999       ,   -1.1454560123025173       ,  -0.71736277139841309     
   2.9199999999999999       ,   -1.2124701930847748       ,  -0.84593954250779801     
   2.9399999999999999       ,   -1.2795421861582748       ,  -0.98433188857166132     
   2.9600000000000000       ,   -1.3456932445715639       ,   -1.1298422493607103     
   2.9800000000000000       ,   -1.4097459172322175       ,   -1.2792797380270780     
   3.0000000000000000       ,   -1.4703234530762834       ,   -1.4290283670247943     
   3.0200000000000000       ,   -1.5258582228772932       ,   -1.5751321930335151     
   3.0400000000000000       ,   -1.5746098704622655       ,   -1.7133951945156030     
   3.0600000000000001       ,   -1.6146934984437713       ,   -1.8394931335025035     
   3.0800000000000001       ,   -1.6441177495146508       ,   -1.9490941715414005     
   3.1000000000000001       ,   -1.6608321819481533       ,   -2.0379846274120674     
   3.1200000000000001       ,   -1.6627828776097606       ,   -2.1021959970187547     
   3.1400000000000001       ,   -1.6479747833867924       ,   -2.1381292156977727     
   3.1600000000000001       ,   -1.6145388928827429       ,   -2.1426721376188773     
   3.1800000000000002       ,   -1.5608020435365204       ,   -2.1133063388373130     
   3.2000000000000002       ,   -1.4853568518027458       ,   -2.0481996178014650     
   3.2200000000000002       ,   -1.3871291494388900       ,   -1.9462809627534405     
   3.2400000000000002       ,   -1.2654402273837773       ,   -1.8072952677517631     
   3.2600000000000002       ,   -1.1200612460904305       ,   -1.6318356918964694     
   3.2800000000000002       ,  -0.95125733388935441       ,   -1.4213522497960833     
   3.3000000000000003       ,  -0.75981916474117284       ,   -1.1781359722628524     
   3.3200000000000003       ,  -0.54708017572335499       ,  -0.90527875917589617     
   3.3400000000000003       ,  -0.31491804056692146       ,  -0.60660983447310013     
   3.3599999999999999       ,   -6.5739542392281594E-002  ,  -0.28661047889970775     
   3.3799999999999999       ,   0.19755143292779206       ,    4.9690567452418184E-002
   3.3999999999999999       ,   0.47160245357228830       ,   0.39683799903508660     
   3.4199999999999999       ,   0.75267670586175761       ,   0.74908355724604114     
   3.4399999999999999       ,    1.0367312274734226       ,    1.1005283565272355     
   3.4600000000000000       ,    1.3195071187338721       ,    1.4452696252567814     
   3.4800000000000000       ,    1.5966291531392143       ,    1.7775474121674217     
   3.5000000000000000       ,    1.8637118059801960       ,    2.0918868081995607     
   3.5200000000000000       ,    2.1164684205302016       ,    2.3832313828948704     
   3.5400000000000000       ,    2.3508200481449797       ,    2.6470638287577040     
   3.5600000000000001       ,    2.5630004408188185       ,    2.8795102363321825     
   3.5800000000000001       ,    2.7496537463618256       ,    3.0774249720618778     
   3.6000000000000001       ,    2.9079216564318711       ,    3.2384537809796954     
   3.6200000000000001       ,    3.0355170800941789       ,    3.3610734639379936     
   3.6400000000000001       ,    3.1307818494108695       ,    3.4446072586582845     
   3.6600000000000001       ,    3.1927264933017256       ,    3.4892158577222698     
   3.6800000000000002       ,    3.2210507221759075       ,    3.4958647962771208     
   3.7000000000000002       ,    3.2161439260663549       ,    3.4662697094364097     
   3.7200000000000002       ,    3.1790656783891085       ,    3.4028216671346501     
   3.7400000000000002       ,    3.1115069298966067       ,    3.3084954178090147     
   3.7600000000000002       ,    3.0157332465516800       ,    3.1867438901792178     
   3.7800000000000002       ,    2.8945120653790006       ,    3.0413826969849009     
   3.8000000000000003       ,    2.7510264901509611       ,    2.8764686428417132     
   3.8200000000000003       ,    2.5887786031206041       ,    2.6961763524895765     
   3.8400000000000003       ,    2.4114856126420223       ,    2.5046771030862227     
   3.8599999999999999       ,    2.2229723764635834       ,    2.3060237677240325     
   3.8799999999999999       ,    2.0270639286370140       ,    2.1040454651947589     
   3.8999999999999999       ,    1.8274815914266158       ,    1.9022550763243169     
   3.9199999999999999       ,    1.6277460746928032       ,    1.7037722475145962     
   3.9399999999999999       ,    1.4310906615178598       ,    1.5112638787723065     
   3.9600000000000000       ,    1.2403871627816305       ,    1.3269034106999198     
   3.9800000000000000       ,    1.0580868117930404       ,    1.1523495088711453     
   4.0000000000000000       ,   0.88617768344791126       ,   0.98874402187827704     
   4.0199999999999996       ,   0.72615958407310321       ,   0.83672838820968332     
   4.0400000000000000       ,   0.57903669340057773       ,   0.69647701297040943     
   4.0599999999999996       ,   0.44532757514392807       ,   0.56774555217989142     
   4.0800000000000001       ,   0.32509153340055730       ,   0.44993155085539377     
   4.0999999999999996       ,   0.21796970333320567       ,   0.34214449843499678     
   4.1199999999999992       ,   0.12323874883640945       ,   0.24328210402781900     
   4.1399999999999997       ,    3.9874616598340046E-002  ,   0.15210946237286097     
   4.1599999999999993       ,   -3.3376519325643596E-002  ,    6.7337782004023600E-002
   4.1799999999999997       ,   -9.7923184540786315E-002  ,   -1.2300522444958131E-002
   4.1999999999999993       ,  -0.15525253606346154       ,   -8.7983319028216392E-002
   4.2199999999999998       ,  -0.20685637666787204       ,  -0.16073941047408144     
   4.2399999999999993       ,  -0.25416215228838601       ,  -0.23140047431816024     
   4.2599999999999998       ,  -0.29847154236761891       ,  -0.30056588468364487     
   4.2799999999999994       ,  -0.34090886283681465       ,  -0.36858142587549531     
   4.2999999999999998       ,  -0.38238102901966048       ,  -0.43553229689344791     
   4.3199999999999994       ,  -0.42355029177470882       ,  -0.50125019211268007     
   4.3399999999999999       ,  -0.46482038754221217       ,  -0.56533365144648728     
   4.3599999999999994       ,  -0.50633615587216119       ,  -0.62718032680540248     
   4.3799999999999999       ,  -0.54799610103192142       ,  -0.68602933198993532     
   4.3999999999999995       ,  -0.58947683126586481       ,  -0.74101144872751989     
   4.4199999999999999       ,  -0.63026782235917189       ,  -0.79120466714855420     
   4.4399999999999995       ,  -0.66971454089754845       ,  -0.83569235512898576     
   4.4600000000000000       ,  -0.70706764317927151       ,  -0.87362128354010093     
   4.4799999999999995       ,  -0.74153575025528407       ,  -0.90425678467312764     
   4.5000000000000000       ,  -0.77233919566999276       ,  -0.92703248528406645     
   4.5199999999999996       ,  -0.79876215298644426       ,  -0.94159232556556660     
   4.5400000000000000       ,  -0.82020067307856026       ,  -0.94782293840835086     
   4.5599999999999996       ,  -0.83620438969937805       ,  -0.94587490339781111     
   4.5800000000000001       ,  -0.84650997481940593       ,  -0.93617188795078321     
