r(A) ,   X_ray-calc  ,   X_ray_exp_renorm
   2.0000000000000000E-002  ,   -1.4072635273501495       ,   -1.3118725243759766     
   4.0000000000000001E-002  ,   -1.4500154649461927       ,   -1.3549640497492466     
   5.9999999999999998E-002  ,   -1.5198001850126395       ,   -1.4254236555140078     
   8.0000000000000002E-002  ,   -1.6144694482525852       ,   -1.5212593534257097     
  0.10000000000000001       ,   -1.7311226748093345       ,   -1.6397754562799982     
  0.12000000000000001       ,   -1.8662090952205359       ,   -1.7776616873097884     
  0.13999999999999999       ,   -2.0156524314717998       ,   -1.9311022196031251     
  0.16000000000000000       ,   -2.1749934701733191       ,   -2.0959007815514643     
  0.17999999999999999       ,   -2.3395452353151511       ,   -2.2676174071594826     
  0.19999999999999998       ,   -2.5045550158947094       ,   -2.4417120156512446     
  0.22000000000000000       ,   -2.6653672708850622       ,   -2.6136897872923859     
  0.23999999999999999       ,   -2.8175814289213537       ,   -2.7792432691382047     
  0.26000000000000001       ,   -2.9571988222892567       ,   -2.9343862959951976     
  0.28000000000000003       ,   -3.0807534350516828       ,   -3.0755751417999928     
  0.30000000000000004       ,   -3.1854217857798206       ,   -3.1998128117541951     
  0.32000000000000001       ,   -3.2691080809669990       ,   -3.3047330266430293     
  0.34000000000000002       ,   -3.3305017337087381       ,   -3.3886612131607015     
  0.36000000000000004       ,   -3.3691054060992194       ,   -3.4506506686840104     
  0.38000000000000000       ,   -3.3852328615512466       ,   -3.4904929834026013     
  0.40000000000000002       ,   -3.3799770610980375       ,   -3.5087027425922228     
  0.42000000000000004       ,   -3.3551500612983034       ,   -3.5064774619424957     
  0.44000000000000000       ,   -3.3131973273913924       ,   -3.4856345946627116     
  0.46000000000000002       ,   -3.2570900234245732       ,   -3.4485282579507670     
  0.48000000000000004       ,   -3.1901996451803698       ,   -3.3979490288297320     
  0.50000000000000000       ,   -3.1161599916412657       ,   -3.3370107300947804     
  0.52000000000000002       ,   -3.0387219031622115       ,   -3.2690285461101842     
  0.54000000000000004       ,   -2.9616064140223388       ,   -3.1973930612985799     
  0.56000000000000005       ,   -2.8883619665376514       ,   -3.1254448936184498     
  0.58000000000000007       ,   -2.8222311150020780       ,   -3.0563545000190540     
  0.59999999999999998       ,   -2.7660317204740790       ,   -2.9930114663105254     
  0.62000000000000000       ,   -2.7220570200067740       ,   -2.9379271719654461     
  0.64000000000000001       ,   -2.6919981718204133       ,   -2.8931541587982581     
  0.66000000000000003       ,   -2.6768919628983920       ,   -2.8602248540846222     
  0.68000000000000005       ,   -2.6770953543110725       ,   -2.8401115305076510     
  0.70000000000000007       ,   -2.6922874725042703       ,   -2.8332085574886499     
  0.72000000000000008       ,   -2.7214985740138036       ,   -2.8393371430365071     
  0.73999999999999999       ,   -2.7631644590026405       ,   -2.8577719149698444     
  0.76000000000000001       ,   -2.8152038266448227       ,   -2.8872878773755408     
  0.78000000000000003       ,   -2.8751151906463810       ,   -2.9262255327994060     
  0.80000000000000004       ,   -2.9400892395256104       ,   -2.9725713102892777     
  0.82000000000000006       ,   -3.0071319613001437       ,   -3.0240499074201219     
  0.84000000000000008       ,   -3.0731934767241320       ,   -3.0782247593880689     
  0.85999999999999999       ,   -3.1352973523377190       ,   -3.1326026032397598     
  0.88000000000000000       ,   -3.1906651994029538       ,   -3.1847380174652011     
  0.90000000000000002       ,   -3.2368316041476008       ,   -3.2323338875596943     
  0.92000000000000004       ,   -3.2717448674236280       ,   -3.2733339717145462     
  0.94000000000000006       ,   -3.2938496391796330       ,   -3.3060041066796129     
  0.96000000000000008       ,   -3.3021482895783429       ,   -3.3289990859065703     
  0.97999999999999998       ,   -3.2962387330192606       ,   -3.3414128395720608     
   1.0000000000000000       ,   -3.2763273782144022       ,   -3.3428102245044125     
   1.0200000000000000       ,   -3.2432168783175439       ,   -3.3332394641648366     
   1.0400000000000000       ,   -3.1982693600285632       ,   -3.3132250357965858     
   1.0600000000000001       ,   -3.1433467798715040       ,   -3.2837415542845756     
   1.0800000000000001       ,   -3.0807309515295662       ,   -3.2461699214444937     
   1.1000000000000001       ,   -3.0130265755069798       ,   -3.2022376684173444     
   1.1200000000000001       ,   -2.9430512513735843       ,   -3.1539459933839913     
   1.1400000000000001       ,   -2.8737169390736699       ,   -3.1034864664015940     
   1.1600000000000001       ,   -2.8079076415549884       ,   -3.0531507216656859     
   1.1799999999999999       ,   -2.7483581959066838       ,   -3.0052366737384784     
   1.2000000000000000       ,   -2.6975389815479263       ,   -2.9619548723737665     
   1.2200000000000000       ,   -2.6575510867262602       ,   -2.9253385500695361     
   1.2400000000000000       ,   -2.6300360310265103       ,   -2.8971607223006770     
   1.2600000000000000       ,   -2.6161035409675013       ,   -2.8788613824998430     
   1.2800000000000000       ,   -2.6162801433060530       ,   -2.8714874068211182     
   1.3000000000000000       ,   -2.6304805065597523       ,   -2.8756472660127703     
   1.3200000000000001       ,   -2.6580025593937107       ,   -2.8914820549482942     
   1.3400000000000001       ,   -2.6975464810996685       ,   -2.9186537183344865     
   1.3600000000000001       ,   -2.7472567314903302       ,   -2.9563506988952750     
   1.3800000000000001       ,   -2.8047854015688136       ,   -3.0033105872107786     
   1.4000000000000001       ,   -2.8673743566705236       ,   -3.0578587349052251     
   1.4200000000000002       ,   -2.9319529413523728       ,   -3.1179612278467581     
   1.4399999999999999       ,   -2.9952474464498424       ,   -3.1812901237034183     
   1.4600000000000000       ,   -3.0538981241613512       ,   -3.2452984555485598     
   1.4800000000000000       ,   -3.1045792911067061       ,   -3.3073022032844297     
   1.5000000000000000       ,   -3.1441179895432403       ,   -3.3645662462050940     
   1.5200000000000000       ,   -3.1696067837313269       ,   -3.4143912372413849     
   1.5400000000000000       ,   -3.1785065452447872       ,   -3.4541983819128106     
   1.5600000000000001       ,   -3.1687355145939344       ,   -3.4816092578722664     
   1.5800000000000001       ,   -3.1387414976128079       ,   -3.4945180651315697     
   1.6000000000000001       ,   -3.0875547392160558       ,   -3.4911540398689738     
   1.6200000000000001       ,   -3.0148197857843533       ,   -3.4701321803375516     
   1.6400000000000001       ,   -2.9208054690846414       ,   -3.4304909036416245     
   1.6600000000000001       ,   -2.8063929861454220       ,   -3.3717157572880145     
   1.6800000000000002       ,   -2.6730428774826982       ,   -3.2937488289748891     
   1.7000000000000000       ,   -2.5227424881775775       ,   -3.1969840116939503     
   1.7200000000000000       ,   -2.3579362025654738       ,   -3.0822487694589884     
   1.7400000000000000       ,   -2.1814413472578233       ,   -2.9507734940897246     
   1.7600000000000000       ,   -1.9963531369649010       ,   -2.8041499300765635     
   1.7800000000000000       ,   -1.8059423765562739       ,   -2.6442804601323995     
   1.8000000000000000       ,   -1.6135498203477459       ,   -2.4733202794144620     
   1.8200000000000001       ,   -1.4224811213687618       ,   -2.2936146359594418     
   1.8400000000000001       ,   -1.2359061813066758       ,   -2.1076333766841278     
   1.8600000000000001       ,   -1.0567664440593032       ,   -1.9179050140545217     
   1.8800000000000001       ,  -0.88769327618135996       ,   -1.7269524233322462     
   1.9000000000000001       ,  -0.73094006486430629       ,   -1.5372321023653286     
   1.9200000000000002       ,  -0.58833006151175060       ,   -1.3510786860143706     
   1.9399999999999999       ,  -0.46122133270770527       ,   -1.1706561183685247     
   1.9600000000000000       ,  -0.35048947870729069       ,  -0.99791656221247138     
   1.9800000000000000       ,  -0.25652807163409685       ,  -0.83456778181757829     
   2.0000000000000000       ,  -0.17926608010213210       ,  -0.68204938718918051     
   2.0200000000000000       ,  -0.11820091119767655       ,  -0.54151798996438782     
   2.0400000000000000       ,   -7.2445139219677102E-002  ,  -0.41384100658048828     
   2.0600000000000001       ,   -4.0784524237503297E-002  ,  -0.29959856474644397     
   2.0800000000000001       ,   -2.1744568921851896E-002  ,  -0.19909273409077241     
   2.1000000000000001       ,   -1.3662630766064712E-002  ,  -0.11236311805969725     
   2.1200000000000001       ,   -1.4762504871690943E-002  ,   -3.9207715914515703E-002
   2.1400000000000001       ,   -2.3228420509590113E-002  ,    2.0792107549294350E-002
   2.1600000000000001       ,   -3.7275547811226273E-002  ,    6.8243722475603966E-002
   2.1800000000000002       ,   -5.5214379173271384E-002  ,   0.10391354623618239     
   2.2000000000000002       ,   -7.5506718631888389E-002  ,   0.12869662715138572     
   2.2200000000000002       ,   -9.6811463033960238E-002  ,   0.14358643951942740     
   2.2400000000000002       ,  -0.11801886971453947       ,   0.14964568172468484     
   2.2600000000000002       ,  -0.13827255293820312       ,   0.14797870296423127     
   2.2800000000000002       ,  -0.15697901092836372       ,   0.13970601033517685     
   2.3000000000000003       ,  -0.17380503231857020       ,   0.12594113699399909     
   2.3200000000000003       ,  -0.18866384187256274       ,   0.10776999340930023     
   2.3399999999999999       ,  -0.20169129902042138       ,    8.6232685730795608E-002
   2.3599999999999999       ,  -0.21321384084233011       ,    6.2307674710987949E-002
   2.3799999999999999       ,  -0.22371014904745198       ,    3.6898070225285864E-002
   2.3999999999999999       ,  -0.23376870801123623       ,    1.0819812880117761E-002
   2.4199999999999999       ,  -0.24404350250779006       ,   -1.5208514118475500E-002
   2.4399999999999999       ,  -0.25521007871490853       ,   -4.0574474549748635E-002
   2.4600000000000000       ,  -0.26792406448523587       ,   -6.4779347265693579E-002
   2.4800000000000000       ,  -0.28278402341145142       ,   -8.7444571321662140E-002
   2.5000000000000000       ,  -0.30030021458629091       ,  -0.10831707153403279     
   2.5200000000000000       ,  -0.32087046233510963       ,  -0.12727336431206354     
   2.5400000000000000       ,  -0.34476392641408005       ,  -0.14432224056380696     
   2.5600000000000001       ,  -0.37211312383943490       ,  -0.15960572888530955     
   2.5800000000000001       ,  -0.40291411009165690       ,  -0.17339796666240731     
   2.6000000000000001       ,  -0.43703430122247400       ,  -0.18610155679305665     
   2.6200000000000001       ,  -0.47422702956749208       ,  -0.19824096976707881     
   2.6400000000000001       ,  -0.51415159250086917       ,  -0.21045256936968221     
   2.6600000000000001       ,  -0.55639729130279159       ,  -0.22347089781397789     
   2.6800000000000002       ,  -0.60050977758979796       ,  -0.23811095292350115     
   2.7000000000000002       ,  -0.64601793571496147       ,  -0.25524632401666530     
   2.7200000000000002       ,  -0.69245953457347054       ,  -0.27578322002912520     
   2.7400000000000002       ,  -0.73940398037081567       ,  -0.30063061663164597     
   2.7600000000000002       ,  -0.78647068774504347       ,  -0.33066696025056364     
   2.7800000000000002       ,  -0.83334185066399757       ,  -0.36670408603219029     
   2.8000000000000003       ,  -0.87976872354113356       ,  -0.40944922288220287     
   2.8200000000000003       ,  -0.92557090075734927       ,  -0.45946616015478570     
   2.8399999999999999       ,  -0.97062849065024692       ,  -0.51713682574696651     
   2.8599999999999999       ,   -1.0148674979821861       ,  -0.58262466321455697     
   2.8799999999999999       ,   -1.0582391363234573       ,  -0.65584128613600767     
   2.8999999999999999       ,   -1.1006941684854941       ,  -0.73641792303590370     
   2.9199999999999999       ,   -1.1421537002319411       ,  -0.82368313959300088     
   2.9399999999999999       ,   -1.1824781132950375       ,  -0.91664823296399889     
   2.9600000000000000       ,   -1.2214360045045569       ,   -1.0140015350123628     
   2.9800000000000000       ,   -1.2586750884721574       ,   -1.1141126391567377     
   3.0000000000000000       ,   -1.2936970157240806       ,   -1.2150472845502696     
   3.0200000000000000       ,   -1.3258379547838186       ,   -1.3145932993618024     
   3.0400000000000000       ,   -1.3542565883105500       ,   -1.4102976326978414     
   3.0600000000000001       ,   -1.3779308872382350       ,   -1.4995141051176675     
   3.0800000000000001       ,   -1.3956646642903796       ,   -1.5794610955106829     
   3.1000000000000001       ,   -1.4061044842707842       ,   -1.6472879733342420     
   3.1200000000000001       ,   -1.4077670411701917       ,   -1.7001486964731816     
   3.1400000000000001       ,   -1.3990766216499362       ,   -1.7352806428265117     
   3.1600000000000001       ,   -1.3784117825075608       ,   -1.7500864439226456     
   3.1800000000000002       ,   -1.3441598983756322       ,   -1.7422163557152364     
   3.2000000000000002       ,   -1.2947778067056415       ,   -1.7096485474054148     
   3.2200000000000002       ,   -1.2288564101225981       ,   -1.6507646231694943     
   3.2400000000000002       ,   -1.1451868092153703       ,   -1.5644177203704566     
   3.2600000000000002       ,   -1.0428253463045472       ,   -1.4499906539937544     
   3.2800000000000002       ,  -0.92115485342791970       ,   -1.3074417997189463     
   3.3000000000000003       ,  -0.77993942209408207       ,   -1.1373367224413828     
   3.3200000000000003       ,  -0.61937015000708595       ,  -0.94086395467654382     
   3.3400000000000003       ,  -0.44009956790254023       ,  -0.71983379809757275     
   3.3599999999999999       ,  -0.24326280008376344       ,  -0.47665954634595137     
   3.3799999999999999       ,   -3.0483952992199335E-002  ,  -0.21432109049770645     
   3.3999999999999999       ,   0.19613325900195672       ,    6.3688549504983441E-002
   3.4199999999999999       ,   0.43403107197770252       ,   0.35343264442458383     
   3.4399999999999999       ,   0.68023923449176282       ,   0.65061444706589433     
   3.4600000000000000       ,   0.93143178211175248       ,   0.95067296437701176     
   3.4800000000000000       ,    1.1839976384140598       ,    1.2488881716663005     
   3.5000000000000000       ,    1.4341231013933760       ,    1.5404926644426979     
   3.5200000000000000       ,    1.6778837819358199       ,    1.8207864742742350     
   3.5400000000000000       ,    1.9113431520072375       ,    2.0852516142481896     
   3.5600000000000001       ,    2.1306545519540836       ,    2.3296628748064041     
   3.5800000000000001       ,    2.3321633123933276       ,    2.5501914653954887     
   3.6000000000000001       ,    2.5125055757171499       ,    2.7434982905698240     
   3.6200000000000001       ,    2.6687004595419799       ,    2.9068139555252568     
   3.6400000000000001       ,    2.7982323887116229       ,    3.0380030058431466     
   3.6600000000000001       ,    2.8991207278830857       ,    3.1356104058332401     
   3.6800000000000002       ,    2.9699742625865113       ,    3.1988888321353155     
   3.7000000000000002       ,    3.0100285878165596       ,    3.2278059841577549     
   3.7200000000000002       ,    3.0191650506776107       ,    3.2230317683499070     
   3.7400000000000002       ,    2.9979105352557185       ,    3.1859058757766046     
   3.7600000000000002       ,    2.9474180493748103       ,    3.1183869181230688     
   3.7800000000000002       ,    2.8694287485957894       ,    3.0229848927374925     
   3.8000000000000003       ,    2.7662166868734017       ,    2.9026792906351546     
   3.8200000000000003       ,    2.6405181906236921       ,    2.7608256227961991     
   3.8400000000000003       ,    2.4954482902957498       ,    2.6010535028447799     
   3.8599999999999999       ,    2.3344070903263798       ,    2.4271596752027453     
   3.8799999999999999       ,    2.1609792975746505       ,    2.2429995081354126     
   3.8999999999999999       ,    1.9788303471925128       ,    2.0523804763257152     
   3.9199999999999999       ,    1.7916026553261228       ,    1.8589610379965560     
   3.9399999999999999       ,    1.6028154870416000       ,    1.6661580720956455     
   3.9600000000000000       ,    1.4157717575646229       ,    1.4770656911072513     
   3.9800000000000000       ,    1.2334747925097065       ,    1.2943877982318459     
   4.0000000000000000       ,    1.0585576702038606       ,    1.1203862311535799     
   4.0199999999999996       ,   0.89322727269629154       ,   0.95684574851063653     
   4.0400000000000000       ,   0.73922460140987678       ,   0.80505649176500116     
   4.0599999999999996       ,   0.59780229124686279       ,   0.66581391800039835     
   4.0800000000000001       ,   0.46971960780641014       ,   0.53943557220268046     
   4.0999999999999996       ,   0.35525456159579888       ,   0.42579347419272834     
   4.1199999999999992       ,   0.25423214598220623       ,   0.32436035753282461     
   4.1399999999999997       ,   0.16606712626710982       ,   0.23426753506605005     
   4.1599999999999993       ,    8.9819297701482906E-002  ,   0.15437179487996894     
   4.1799999999999997       ,    2.4258709568456355E-002  ,    8.3328464343945946E-002
   4.1999999999999993       ,   -3.2061963996663237E-002  ,    1.9667627230029891E-002
   4.2199999999999998       ,   -8.0730926934112129E-002  ,   -3.8129555904467795E-002
   4.2399999999999993       ,  -0.12339973791254727       ,   -9.1557391222846507E-002
   4.2599999999999998       ,  -0.16170781707945439       ,  -0.14201783084854533     
   4.2799999999999994       ,  -0.19721187608335630       ,  -0.19076076095363723     
   4.2999999999999998       ,  -0.23132289001257347       ,  -0.23883448281098593     
   4.3199999999999994       ,  -0.26525285667333076       ,  -0.28704800819998999     
   4.3399999999999999       ,  -0.29997313318211866       ,  -0.33594627336778710     
   4.3599999999999994       ,  -0.33618562176073252       ,  -0.38579882528375281     
   4.3799999999999999       ,  -0.37430751778134264       ,  -0.43660197244456755     
   4.3999999999999995       ,  -0.41446975677921644       ,  -0.48809384242635762     
   4.4199999999999999       ,  -0.45652872701919200       ,  -0.53978127145941801     
   4.4399999999999995       ,  -0.50009027340380818       ,  -0.59097698766304563     
   4.4600000000000000       ,  -0.54454452869066494       ,  -0.64084515700119127     
   4.4799999999999995       ,  -0.58910968842534139       ,  -0.68845305422588354     
   4.5000000000000000       ,  -0.63288251284746966       ,  -0.73282641117216674     
   4.5199999999999996       ,  -0.67489310468476171       ,  -0.77300588883458143     
   4.5400000000000000       ,  -0.71416138437802057       ,  -0.80810212049897667     
   4.5599999999999996       ,  -0.74975266752325065       ,  -0.83734687928759577     
   4.5800000000000001       ,  -0.78082984219755946       ,  -0.86013812902564901     
