r(A) ,   X_ray-calc  ,   X_ray_exp_renorm
   2.0000000000000000E-002  ,    3.0093118580997152E-002  ,   -1.6976366727595045     
   4.0000000000000001E-002  ,   -3.9923716099463748E-002  ,   -1.7689060444666502     
   5.9999999999999998E-002  ,  -0.15448131115818653       ,   -1.8854223618057857     
   8.0000000000000002E-002  ,  -0.31044662152083141       ,   -2.0438663491990474     
  0.10000000000000001       ,  -0.50357607262178394       ,   -2.2397474320549917     
  0.12000000000000001       ,  -0.72865225691652835       ,   -2.4675533903240630     
  0.13999999999999999       ,  -0.97965137199004793       ,   -2.7209334000824992     
  0.16000000000000000       ,   -1.2499355839723931       ,   -2.9929079201927320     
  0.17999999999999999       ,   -1.5324636541579095       ,   -3.2760979425139038     
  0.19999999999999998       ,   -1.8200125624284700       ,   -3.5629654635563597     
  0.22000000000000000       ,   -2.1054025195187549       ,   -3.8460566766908890     
  0.23999999999999999       ,   -2.3817176927540400       ,   -4.1182393393514358     
  0.26000000000000001       ,   -2.6425151778762159       ,   -4.3729260394784433     
  0.28000000000000003       ,   -2.8820152239758885       ,   -4.6042756581984401     
  0.30000000000000004       ,   -3.0952664405684658       ,   -4.8073661784511792     
  0.32000000000000001       ,   -3.2782806576031942       ,   -4.9783330884782515     
  0.34000000000000002       ,   -3.4281332347910287       ,   -5.1144689321142334     
  0.36000000000000004       ,   -3.5430258835857207       ,   -5.2142810145151239     
  0.38000000000000000       ,   -3.6223104259729371       ,   -5.2775058266096648     
  0.40000000000000002       ,   -3.6664733182697464       ,   -5.3050803450932689     
  0.42000000000000004       ,   -3.6770821635163986       ,   -5.2990719370330170     
  0.44000000000000000       ,   -3.6566967715724603       ,   -5.2625700901785555     
  0.46000000000000002       ,   -3.6087485531649333       ,   -5.1995445464275223     
  0.48000000000000004       ,   -3.5373931087702313       ,   -5.1146755867170892     
  0.50000000000000000       ,   -3.4473417573151424       ,   -5.0131631585207455     
  0.52000000000000002       ,   -3.3436784126773458       ,   -4.9005222187853850     
  0.54000000000000004       ,   -3.2316686358324631       ,   -4.7823720624735557     
  0.56000000000000005       ,   -3.1165678545160311       ,   -4.6642275078751139     
  0.58000000000000007       ,   -3.0034356474434993       ,   -4.5512996139560107     
  0.59999999999999998       ,   -2.8969626431802222       ,   -4.4483131230182602     
  0.62000000000000000       ,   -2.8013160007995097       ,   -4.3593470754960144     
  0.64000000000000001       ,   -2.7200086452976451       ,   -4.2877040643580138     
  0.66000000000000003       ,   -2.6557964578141675       ,   -4.2358124244709305     
  0.68000000000000005       ,   -2.6106065078268683       ,   -4.2051643345010286     
  0.70000000000000007       ,   -2.5854982052620357       ,   -4.1962913976540355     
  0.72000000000000008       ,   -2.5806579915793608       ,   -4.2087778179285991     
  0.73999999999999999       ,   -2.5954269283362246       ,   -4.2413098565535883     
  0.76000000000000001       ,   -2.6283593269337842       ,   -4.2917588935058673     
  0.78000000000000003       ,   -2.6773094392527090       ,   -4.3572941826021712     
  0.80000000000000004       ,   -2.7395422367130160       ,   -4.4345203213569251     
  0.82000000000000006       ,   -2.8118634803778448       ,   -4.5196335972010546     
  0.84000000000000008       ,   -2.8907636556547511       ,   -4.6085907498227501     
  0.85999999999999999       ,   -2.9725699326548782       ,   -4.6972833257772217     
  0.88000000000000000       ,   -3.0536001295308033       ,   -4.7817107062865443     
  0.90000000000000002       ,   -3.1303127043944525       ,   -4.8581450619428619     
  0.92000000000000004       ,   -3.1994470760825267       ,   -4.9232819180713356     
  0.94000000000000006       ,   -3.2581490608755015       ,   -4.9743706812075184     
  0.96000000000000008       ,   -3.3040768891726229       ,   -5.0093203510138151     
  0.97999999999999998       ,   -3.3354841040203054       ,   -5.0267766859011473     
   1.0000000000000000       ,   -3.3512766075026743       ,   -5.0261682614863528     
   1.0200000000000000       ,   -3.3510421722499713       ,   -5.0077201113860701     
   1.0400000000000000       ,   -3.3350518318941345       ,   -4.9724349199472044     
   1.0600000000000001       ,   -3.3042336633221692       ,   -4.9220429962180745     
   1.0800000000000001       ,   -3.2601205327699514       ,   -4.8589234492493496     
   1.1000000000000001       ,   -3.2047743571143181       ,   -4.7860000616560958     
   1.1200000000000001       ,   -3.1406902948585009       ,   -4.7066162814559167     
   1.1400000000000001       ,   -3.0706849970568242       ,   -4.6243944883944215     
   1.1600000000000001       ,   -2.9977735918045871       ,   -4.5430852150337078     
   1.1799999999999999       ,   -2.9250404290338770       ,   -4.4664122983155501     
   1.2000000000000000       ,   -2.8555087649848181       ,   -4.3979199968571319     
   1.2200000000000000       ,   -2.7920145155825660       ,   -4.3408279350119736     
   1.2400000000000000       ,   -2.7370889606584661       ,   -4.2978993379535400     
   1.2600000000000000       ,   -2.6928548496675169       ,   -4.2713274224517361     
   1.2800000000000000       ,   -2.6609397643327073       ,   -4.2626440329087067     
   1.3000000000000000       ,   -2.6424098605452011       ,   -4.2726536952399314     
   1.3200000000000001       ,   -2.6377262718002079       ,   -4.3013952408525853     
   1.3400000000000001       ,   -2.6467255439603607       ,   -4.3481320710639810     
   1.3600000000000001       ,   -2.6686245228888290       ,   -4.4113710321336788     
   1.3800000000000001       ,   -2.7020491698507048       ,   -4.4889087957436775     
   1.4000000000000001       ,   -2.7450858711269097       ,   -4.5779036304079961     
   1.4200000000000002       ,   -2.7953529724035691       ,   -4.6749695435552132     
   1.4399999999999999       ,   -2.8500895360668728       ,   -4.7762890045699775     
   1.4600000000000000       ,   -2.9062577167754502       ,   -4.8777398524213638     
   1.4800000000000000       ,   -2.9606546982394404       ,   -4.9750315670876128     
   1.5000000000000000       ,   -3.0100298463612631       ,   -5.0638458535674991     
   1.5200000000000000       ,   -3.0512026184190182       ,   -5.1399764546211939     
   1.5400000000000000       ,   -3.0811768255486212       ,   -5.1994632693535072     
   1.5600000000000001       ,   -3.0972470703807793       ,   -5.2387161976090573     
   1.5800000000000001       ,   -3.0970935609079642       ,   -5.2546246362552189     
   1.6000000000000001       ,   -3.0788620173193038       ,   -5.2446491981744190     
   1.6200000000000001       ,   -3.0412260175628503       ,   -5.2068929787441407     
   1.6400000000000001       ,   -2.9834298427882255       ,   -5.1401505248278632     
   1.6600000000000001       ,   -2.9053106558635804       ,   -5.0439335328565083     
   1.6800000000000002       ,   -2.8072996436219446       ,   -4.9184731799022279     
   1.7000000000000000       ,   -2.6904025449187046       ,   -4.7646998400952771     
   1.7200000000000000       ,   -2.5561607415412069       ,   -4.5842017259692387     
   1.7400000000000000       ,   -2.4065947792818703       ,   -4.3791646915728641     
   1.7600000000000000       ,   -2.2441327871186290       ,   -4.1522960173345220     
   1.7800000000000000       ,   -2.0715267526813572       ,   -3.9067354470971969     
   1.8000000000000000       ,   -1.8917599761661235       ,   -3.6459570529567999     
   1.8200000000000001       ,   -1.7079492521520940       ,   -3.3736656574706343     
   1.8400000000000001       ,   -1.5232454146250030       ,   -3.0936915458784169     
   1.8600000000000001       ,   -1.3407358258889113       ,   -2.8098870598658583     
   1.8800000000000001       ,   -1.1633522014551712       ,   -2.5260283915283472     
   1.9000000000000001       ,  -0.99378685204600459       ,   -2.2457255090150956     
   1.9200000000000002       ,  -0.83442000665239513       ,   -1.9723426654111385     
   1.9399999999999999       ,  -0.68726037697042652       ,   -1.7089313943322244     
   1.9600000000000000       ,  -0.55390055614164635       ,   -1.4581773059016438     
   1.9800000000000000       ,  -0.43548823797718594       ,   -1.2223613923107730     
   2.0000000000000000       ,  -0.33271362194102655       ,   -1.0033359595102800     
   2.0200000000000000       ,  -0.24581275899419588       ,  -0.80251474546478774     
   2.0400000000000000       ,  -0.17458601753934677       ,  -0.62087628777619541     
   2.0600000000000001       ,  -0.11843032849984660       ,  -0.45897918261297549     
   2.0800000000000001       ,   -7.6383422323642411E-002  ,  -0.31698754668250950     
   2.1000000000000001       ,   -4.7177913027254888E-002  ,  -0.19470476351971910     
   2.1200000000000001       ,   -2.9302825718966301E-002  ,   -9.1613468625159691E-002
   2.1400000000000001       ,   -2.1070010324351813E-002  ,   -6.9197038800852912E-003
   2.1600000000000001       ,   -2.0682836881462930E-002  ,    6.0400755736129588E-002
   2.1800000000000002       ,   -2.6304623720079721E-002  ,   0.11155574111190678     
   2.2000000000000002       ,   -3.6124401865203583E-002  ,   0.14789130030085806     
   2.2200000000000002       ,   -4.8417856177984768E-002  ,   0.17084890207345527     
   2.2400000000000002       ,   -6.1601592034661201E-002  ,   0.18192622847655673     
   2.2600000000000002       ,   -7.4279239331232497E-002  ,   0.18264221346747408     
   2.2800000000000002       ,   -8.5278305293299508E-002  ,   0.17450664835771892     
   2.3000000000000003       ,   -9.3677105235265776E-002  ,   0.15899436064474048     
   2.3200000000000003       ,   -9.8821517432762573E-002  ,   0.13752369765422215     
   2.3399999999999999       ,  -0.10033170695990136       ,   0.11143882428113247     
   2.3599999999999999       ,   -9.8099327692949226E-002  ,    8.1995185548460595E-002
   2.3799999999999999       ,   -9.2276028019473211E-002  ,    5.0347396289125372E-002
   2.3999999999999999       ,   -8.3254343300953743E-002  ,    1.7538804353900751E-002
   2.4199999999999999       ,   -7.1642249234870961E-002  ,   -1.5507971579016854E-002
   2.4399999999999999       ,   -5.8232770825395352E-002  ,   -4.8000109342978832E-002
   2.4600000000000000       ,   -4.3970091083141150E-002  ,   -7.9283661687513829E-002
   2.4800000000000000       ,   -2.9913584619867196E-002  ,  -0.10885283623192452     
   2.5000000000000000       ,   -1.7201119901913437E-002  ,  -0.13635942597032991     
   2.5200000000000000       ,   -7.0128387283274127E-003  ,  -0.16162208900755759     
   2.5400000000000000       ,   -5.3644336542895148E-004  ,  -0.18463493496561187     
   2.5600000000000001       ,    1.0651868430054971E-003  ,  -0.20557466101802691     
   2.5800000000000001       ,   -3.3165467197892721E-003  ,  -0.22480530924309947     
   2.6000000000000001       ,   -1.4709796634953476E-002  ,  -0.24287960327071875     
   2.6200000000000001       ,   -3.4039543993468653E-002  ,  -0.26053577742708128     
   2.6400000000000001       ,   -6.2108262261553943E-002  ,  -0.27868884354436974     
   2.6600000000000001       ,   -9.9579753999692558E-002  ,  -0.29841535297507343     
   2.6800000000000002       ,  -0.14696581809817152       ,  -0.32093090340107289     
   2.7000000000000002       ,  -0.20461532490746689       ,  -0.34755990652524205     
   2.7200000000000002       ,  -0.27270524465974227       ,  -0.37969746409122285     
   2.7400000000000002       ,  -0.35123319070692460       ,  -0.41876358230234767     
   2.7600000000000002       ,  -0.44001110030048413       ,  -0.46615037156920508     
   2.7800000000000002       ,  -0.53865977621181271       ,  -0.52316330987164561     
   2.8000000000000003       ,  -0.64660414441951541       ,  -0.59095807233092024     
   2.8200000000000003       ,  -0.76306923647148639       ,  -0.67047482449926665     
   2.8399999999999999       ,  -0.88707706872625791       ,  -0.76237222029501150     
   2.8599999999999999       ,   -1.0174447525191004       ,  -0.86696361668896915     
   2.8799999999999999       ,   -1.1527843173244103       ,  -0.98415819782136482     
   2.8999999999999999       ,   -1.2915048517038130       ,   -1.1134097761904418     
   2.9199999999999999       ,   -1.4318176539340257       ,   -1.2536759970894860     
   2.9399999999999999       ,   -1.5717451271596681       ,   -1.4033905086192024     
   2.9600000000000000       ,   -1.7091341464215473       ,   -1.5604503727285630     
   2.9800000000000000       ,   -1.8416745633107388       ,   -1.7222205877483712     
   3.0000000000000000       ,   -1.9669233975198268       ,   -1.8855570802278834     
   3.0200000000000000       ,   -2.0823350954320423       ,   -2.0468489192869797     
   3.0400000000000000       ,   -2.1852980193081550       ,   -2.2020798306474383     
   3.0600000000000001       ,   -2.2731770745923905       ,   -2.3469083645345266     
   3.0800000000000001       ,   -2.3433620978369505       ,   -2.4767653293789267     
   3.1000000000000001       ,   -2.3933213262474271       ,   -2.5869663713467719     
   3.1200000000000001       ,   -2.4206589658755293       ,   -2.6728368886338747     
   3.1400000000000001       ,   -2.4231755838794347       ,   -2.7298458491565731     
   3.1600000000000001       ,   -2.3989297860539729       ,   -2.7537445589693510     
   3.1800000000000002       ,   -2.3462994184755988       ,   -2.7407060316408054     
   3.2000000000000002       ,   -2.2640403648399294       ,   -2.6874603569611950     
   3.2200000000000002       ,   -2.1513409102153336       ,   -2.5914213766089613     
   3.2400000000000002       ,   -2.0078696163234655       ,   -2.4508000546658639     
   3.2600000000000002       ,   -1.8338147089325196       ,   -2.2647001854811912     
   3.2800000000000002       ,   -1.6299131170088716       ,   -2.0331925068195091     
   3.3000000000000003       ,   -1.3974675248438917       ,   -1.7573638720462694     
   3.3200000000000003       ,   -1.1383500977417873       ,   -1.4393388642179437     
   3.3400000000000003       ,  -0.85499191075982972       ,   -1.0822720841228581     
   3.3599999999999999       ,  -0.55035753687499400       ,  -0.69031028499962432     
   3.3799999999999999       ,  -0.22790472135536352       ,  -0.26852452596448995     
   3.3999999999999999       ,   0.10847043377557750       ,   0.17718646186353515     
   3.4199999999999999       ,   0.45450184600501098       ,   0.64021949563253722     
   3.4399999999999999       ,   0.80563396617969041       ,    1.1134135925839703     
   3.4600000000000000       ,    1.1571125438126475       ,    1.5892160343598882     
   3.4800000000000000       ,    1.5040833447683608       ,    2.0598630841630259     
   3.5000000000000000       ,    1.8416961768969575       ,    2.5175700101593641     
   3.5200000000000000       ,    2.1652113168077922       ,    2.9547246596399872     
   3.5400000000000000       ,    2.4701052640324810       ,    3.3640786158410969     
   3.5600000000000001       ,    2.7521726863246347       ,    3.7389299639039706     
   3.5800000000000001       ,    3.0076214668652987       ,    4.0732918974601882     
   3.6000000000000001       ,    3.2331579215806734       ,    4.3620418080186072     
   3.6200000000000001       ,    3.4260595192146237       ,    4.6010461031097734     
   3.6400000000000001       ,    3.5842328005636017       ,    4.7872567759482134     
   3.6600000000000001       ,    3.7062546446975912       ,    4.9187766723772173     
   3.6800000000000002       ,    3.7913955537705331       ,    4.9948914374511526     
   3.7000000000000002       ,    3.8396242058309356       ,    5.0160672370010460     
   3.7200000000000002       ,    3.8515931361828089       ,    4.9839144985670902     
   3.7400000000000002       ,    3.8286060300567879       ,    4.9011190591842606     
   3.7600000000000002       ,    3.7725677196679195       ,    4.7713432026802787     
   3.7800000000000002       ,    3.6859185544024320       ,    4.5991000760125003     
   3.8000000000000003       ,    3.5715553322380384       ,    4.3896058555338699     
   3.8200000000000003       ,    3.4327414238836793       ,    4.1486147573906447     
   3.8400000000000003       ,    3.2730090716182194       ,    3.8822425248792301     
   3.8599999999999999       ,    3.0960570889637147       ,    3.5967843598610445     
   3.8799999999999999       ,    2.9056473157132854       ,    3.2985333833351715     
   3.8999999999999999       ,    2.7055031904217168       ,    2.9936056083014781     
   3.9199999999999999       ,    2.4992136888681147       ,    2.6877770907888525     
   3.9399999999999999       ,    2.2901456464900005       ,    2.3863384052495791     
   3.9600000000000000       ,    2.0813671441673405       ,    2.0939708889998521     
   3.9800000000000000       ,    1.8755842029811043       ,    1.8146482444756571     
   4.0000000000000000       ,    1.6750925213552288       ,    1.5515661110421828     
   4.0199999999999996       ,    1.4817454170088977       ,    1.3071011577153231     
   4.0400000000000000       ,    1.2969385283570622       ,    1.0828001452159532     
   4.0599999999999996       ,    1.1216112087480252       ,   0.87939830248796558     
   4.0800000000000001       ,   0.95626393603312176       ,   0.69686530113320866     
   4.0999999999999996       ,   0.80099048276369311       ,   0.53447613123220017     
   4.1199999999999992       ,   0.65552307074090077       ,   0.39090332035566117     
   4.1399999999999997       ,   0.51928828737215238       ,   0.26432622598682326     
   4.1599999999999993       ,   0.39147118693290134       ,   0.15255259572039281     
   4.1799999999999997       ,   0.27108475031368162       ,    5.3147248058455422E-002
   4.1999999999999993       ,   0.15704174086374814       ,   -3.6437409810287362E-002
   4.2199999999999998       ,    4.8225975699622232E-002  ,  -0.11873423953326509     
   4.2399999999999993       ,   -5.6439869181811243E-002  ,  -0.19614254316644245     
   4.2599999999999998       ,  -0.15793259062304169       ,  -0.27082202528172328     
   4.2799999999999994       ,  -0.25707528400194790       ,  -0.34460339192754746     
   4.2999999999999998       ,  -0.35449461768261115       ,  -0.41891866196459060     
   4.3199999999999994       ,  -0.45059003680911308       ,  -0.49475338746382447     
   4.3399999999999999       ,  -0.54551585080870413       ,  -0.57262202954398100     
   4.3599999999999994       ,  -0.63917660243942553       ,  -0.65256675327546920     
   4.3799999999999999       ,  -0.73123555214472602       ,  -0.73417893000986767     
   4.3999999999999995       ,  -0.82113556274626931       ,  -0.81664170690154891     
   4.4199999999999999       ,  -0.90813115818891510       ,  -0.89879115836084544     
   4.4399999999999995       ,  -0.99133007651885807       ,  -0.97919280583295321     
   4.4600000000000000       ,   -1.0697422593811790       ,   -1.0562297086684347     
   4.4799999999999995       ,   -1.1423339326912398       ,   -1.1281979117985703     
   4.5000000000000000       ,   -1.2080842465904236       ,   -1.1934048003036761     
   4.5199999999999996       ,   -1.2660418639462609       ,   -1.2502658640620468     
   4.5400000000000000       ,   -1.3153789176505613       ,   -1.2973955170077778     
   4.5599999999999996       ,   -1.3554398954389550       ,   -1.3336879369253709     
   4.5800000000000001       ,   -1.3857832501514549       ,   -1.3583843776964031     
