r(A) ,   X_ray-calc  ,   X_ray_exp_renorm
   2.0000000000000000E-002  ,   -2.5171499075056443       ,   -2.5846745415883219     
   4.0000000000000001E-002  ,   -2.5347596579582219       ,   -2.5964432877559420     
   5.9999999999999998E-002  ,   -2.5633955098551553       ,   -2.6156352382133554     
   8.0000000000000002E-002  ,   -2.6020159107801195       ,   -2.6416323488123035     
  0.10000000000000001       ,   -2.6492196017249325       ,   -2.6736005425170291     
  0.12000000000000001       ,   -2.7032998318187382       ,   -2.7105195025234652     
  0.13999999999999999       ,   -2.7623103266723787       ,   -2.7512190485714925     
  0.16000000000000000       ,   -2.8241404134920445       ,   -2.7944207503318510     
  0.17999999999999999       ,   -2.8865963470833451       ,   -2.8387832397584454     
  0.19999999999999998       ,   -2.9474856389096704       ,   -2.8829495501307205     
  0.22000000000000000       ,   -3.0047010760261843       ,   -2.9255947381469256     
  0.23999999999999999       ,   -3.0563011324922886       ,   -2.9654720394643710     
  0.26000000000000001       ,   -3.1005836220744252       ,   -3.0014558676268597     
  0.28000000000000003       ,   -3.1361497118067980       ,   -3.0325800890099313     
  0.30000000000000004       ,   -3.1619558004691060       ,   -3.0580701874958605     
  0.32000000000000001       ,   -3.1773512489352660       ,   -3.0773681651093869     
  0.34000000000000002       ,   -3.1821005114307255       ,   -3.0901492999196765     
  0.36000000000000004       ,   -3.1763888356537038       ,   -3.0963301896677491     
  0.38000000000000000       ,   -3.1608113508815188       ,   -3.0960678371559740     
  0.40000000000000002       ,   -3.1363460207507448       ,   -3.0897498690354470     
  0.42000000000000004       ,   -3.1043115752885835       ,   -3.0779763105860196     
  0.44000000000000000       ,   -3.0663121297151101       ,   -3.0615336529505357     
  0.46000000000000002       ,   -3.0241707220644227       ,   -3.0413622343024760     
  0.48000000000000004       ,   -2.9798544370669049       ,   -3.0185182019610024     
  0.50000000000000000       ,   -2.9353941128294938       ,   -2.9941315194278344     
  0.52000000000000002       ,   -2.8928018367166266       ,   -2.9693616234747768     
  0.54000000000000004       ,   -2.8539895192918991       ,   -2.9453524166724834     
  0.56000000000000005       ,   -2.8206917871060520       ,   -2.9231882973486685     
  0.58000000000000007       ,   -2.7943962585743045       ,   -2.9038528815436750     
  0.59999999999999998       ,   -2.7762839693247416       ,   -2.8881919621530550     
  0.62000000000000000       ,   -2.7671823061719247       ,   -2.8768820834986371     
  0.64000000000000001       ,   -2.7675323085436454       ,   -2.8704058915863762     
  0.66000000000000003       ,   -2.7773716226986633       ,   -2.8690351597117312     
  0.68000000000000005       ,   -2.7963337702218114       ,   -2.8728220958487607     
  0.70000000000000007       ,   -2.8236637428320641       ,   -2.8815992235555092     
  0.72000000000000008       ,   -2.8582492862253068       ,   -2.8949878038508547     
  0.73999999999999999       ,   -2.8986666121859339       ,   -2.9124144438513504     
  0.76000000000000001       ,   -2.9432387051644260       ,   -2.9331352309191709     
  0.78000000000000003       ,   -2.9901038895162189       ,   -2.9562664500590636     
  0.80000000000000004       ,   -3.0372919162923768       ,   -2.9808206976573977     
  0.82000000000000006       ,   -3.0828045298196756       ,   -3.0057470052985127     
  0.84000000000000008       ,   -3.1246972959493027       ,   -3.0299734404845724     
  0.85999999999999999       ,   -3.1611594226510333       ,   -3.0524505617812348     
  0.88000000000000000       ,   -3.1905883814223195       ,   -3.0721940771819671     
  0.90000000000000002       ,   -3.2116563415110959       ,   -3.0883250870228536     
  0.92000000000000004       ,   -3.2233657500175488       ,   -3.1001063849967907     
  0.94000000000000006       ,   -3.2250918167282414       ,   -3.1069734389200070     
  0.96000000000000008       ,   -3.2166101761464891       ,   -3.1085588710664624     
  0.97999999999999998       ,   -3.1981085802989853       ,   -3.1047094984747479     
   1.0000000000000000       ,   -3.1701821016122231       ,   -3.0954952675228085     
   1.0200000000000000       ,   -3.1338119708602585       ,   -3.0812097139892130     
   1.0400000000000000       ,   -3.0903288155801865       ,   -3.0623618887635198     
   1.0600000000000001       ,   -3.0413616744088263       ,   -3.0396599989904329     
   1.0800000000000001       ,   -2.9887747187600224       ,   -3.0139873134889639     
   1.1000000000000001       ,   -2.9345940935878021       ,   -2.9863711590472137     
   1.1200000000000001       ,   -2.8809276751504878       ,   -2.9579460808246139     
   1.1400000000000001       ,   -2.8298808209465949       ,   -2.9299124470224145     
   1.1600000000000001       ,   -2.7834713448908572       ,   -2.9034919381840849     
   1.1799999999999999       ,   -2.7435469835977222       ,   -2.8798814697250390     
   1.2000000000000000       ,   -2.7117085265105456       ,   -2.8602071492810737     
   1.2200000000000000       ,   -2.6892415676385100       ,   -2.8454798669659760     
   1.2400000000000000       ,   -2.6770595086500926       ,   -2.8365540574529571     
   1.2600000000000000       ,   -2.6756600151880021       ,   -2.8340910607402203     
   1.2800000000000000       ,   -2.6850966174924231       ,   -2.8385283481790315     
   1.3000000000000000       ,   -2.7049665728521273       ,   -2.8500556781241899     
   1.3200000000000001       ,   -2.7344154934659444       ,   -2.8685990090904370     
   1.3400000000000001       ,   -2.7721586128338904       ,   -2.8938127363142030     
   1.3600000000000001       ,   -2.8165179411337102       ,   -2.9250805396121597     
   1.3800000000000001       ,   -2.8654739690208935       ,   -2.9615248462556520     
   1.4000000000000001       ,   -2.9167300423652751       ,   -3.0020246321059956     
   1.4200000000000002       ,   -2.9677870677737803       ,   -3.0452410169931317     
   1.4399999999999999       ,   -3.0160258374760498       ,   -3.0896498650967241     
   1.4600000000000000       ,   -3.0587939957093906       ,   -3.1335803857433357     
   1.4800000000000000       ,   -3.0934945163892276       ,   -3.1752585511616278     
   1.5000000000000000       ,   -3.1176725283486295       ,   -3.2128540104895449     
   1.5200000000000000       ,   -3.1290974098806350       ,   -3.2445290872637873     
   1.5400000000000000       ,   -3.1258372742199061       ,   -3.2684884026343322     
   1.5600000000000001       ,   -3.1063232730736363       ,   -3.2830276688456177     
   1.5800000000000001       ,   -3.0694015434813191       ,   -3.2865802456854571     
   1.6000000000000001       ,   -3.0143710978360740       ,   -3.2777601436706365     
   1.6200000000000001       ,   -2.9410064887612184       ,   -3.2554002873992980     
   1.6400000000000001       ,   -2.8495646486447499       ,   -3.2185850152743916     
   1.6600000000000001       ,   -2.7407758858052556       ,   -3.1666759812996590     
   1.6800000000000002       ,   -2.6158195930594075       ,   -3.0993308338203560     
   1.7000000000000000       ,   -2.4762857680913584       ,   -3.0165142675111034     
   1.7200000000000000       ,   -2.3241239381847403       ,   -2.9185012710951685     
   1.7400000000000000       ,   -2.1615815065348918       ,   -2.8058726168909329     
   1.7600000000000000       ,   -1.9911338784297514       ,   -2.6795028524355438     
   1.7800000000000000       ,   -1.8154089714925947       ,   -2.5405412529065061     
   1.8000000000000000       ,   -1.6371088572497072       ,   -2.3903863704726569     
   1.8200000000000001       ,   -1.4589313180074097       ,   -2.2306549686710313     
   1.8400000000000001       ,   -1.2834940341129335       ,   -2.0631462531368983     
   1.8600000000000001       ,   -1.1132639469858414       ,   -1.8898024023625062     
   1.8800000000000001       ,  -0.95049408156934745       ,   -1.7126664626285342     
   1.9000000000000001       ,  -0.79716977025784186       ,   -1.5338386999486668     
   1.9200000000000002       ,  -0.65496581401911835       ,   -1.3554324999248750     
   1.9399999999999999       ,  -0.52521566272174058       ,   -1.1795308758664609     
   1.9600000000000000       ,  -0.40889321450148008       ,   -1.0081445891799587     
   1.9800000000000000       ,  -0.30660734299480341       ,  -0.84317280728162647     
   2.0000000000000000       ,  -0.21860878100580530       ,  -0.68636712692972146     
   2.0200000000000000       ,  -0.14480853837166749       ,  -0.53929967896549957     
   2.0400000000000000       ,   -8.4806627567154430E-002  ,  -0.40333590809545689     
   2.0600000000000001       ,   -3.7929527791497192E-002  ,  -0.27961249254608994     
   2.0800000000000001       ,   -3.2745489336620109E-003  ,  -0.16902073693589559     
   2.1000000000000001       ,    2.0240930328194500E-002  ,   -7.2195640932989663E-002
   2.1200000000000001       ,    3.3827475775215596E-002  ,    1.0489280853059994E-002
   2.1400000000000001       ,    3.8770998571505046E-002  ,    7.8921473322225891E-002
   2.1600000000000001       ,    3.6381604346914016E-002  ,   0.13324326828115854     
   2.1800000000000002       ,    2.7945794125120074E-002  ,   0.17384052703820393     
   2.2000000000000002       ,    1.4683691986541143E-002  ,   0.20132635383291417     
   2.2200000000000002       ,   -2.2873147013333659E-003  ,   0.21652031840544081     
   2.2400000000000002       ,   -2.1981471994536563E-002  ,   0.22042369786781327     
   2.2600000000000002       ,   -4.3565408577558029E-002  ,   0.21419130925180627     
   2.2800000000000002       ,   -6.6370433268677947E-002  ,   0.19910055501243834     
   2.3000000000000003       ,   -8.9896454397989142E-002  ,   0.17651834476705747     
   2.3200000000000003       ,  -0.11380795373029959       ,   0.14786658803076744     
   2.3399999999999999       ,  -0.13792277305604186       ,   0.11458697495310148     
   2.3599999999999999       ,  -0.16219475020782481       ,    7.8105775190438459E-002
   2.3799999999999999       ,  -0.18669146225987049       ,    3.9799388987386192E-002
   2.3999999999999999       ,  -0.21156848898687439       ,    9.6137899619054014E-004
   2.4199999999999999       ,  -0.23704169432452946       ,   -3.7228304156860008E-002
   2.4399999999999999       ,  -0.26335903584837489       ,   -7.3731215705725120E-002
   2.4600000000000000       ,  -0.29077335368892077       ,  -0.10767478068556430     
   2.4800000000000000       ,  -0.31951746548386661       ,  -0.13837252843772954     
   2.5000000000000000       ,  -0.34978271046843018       ,  -0.16533966080073473     
   2.5200000000000000       ,  -0.38170185366310500       ,  -0.18830349323072240     
   2.5400000000000000       ,  -0.41533699239830657       ,  -0.20720839793109466     
   2.5600000000000001       ,  -0.45067281563956380       ,  -0.22221498148811794     
   2.5800000000000001       ,  -0.48761526610356493       ,  -0.23369334588603369     
   2.6000000000000001       ,  -0.52599536052593976       ,  -0.24221040992670451     
   2.6200000000000001       ,  -0.56557764872590166       ,  -0.24851140620008397     
   2.6400000000000001       ,  -0.60607255028037732       ,  -0.25349581439467966     
   2.6600000000000001       ,  -0.64715160996541787       ,  -0.25818814181519290     
   2.6800000000000002       ,  -0.68846456876836171       ,  -0.26370411280741241     
   2.7000000000000002       ,  -0.72965706277341924       ,  -0.27121297617984130     
   2.7200000000000002       ,  -0.77038774127919951       ,  -0.28189677905609184     
   2.7400000000000002       ,  -0.81034363881690996       ,  -0.29690758202986500     
   2.7600000000000002       ,  -0.84925274097713377       ,  -0.31732369907638186     
   2.7800000000000002       ,  -0.88689284588452444       ,  -0.34410613155590780     
   2.8000000000000003       ,  -0.92309603388175598       ,  -0.37805642429326747     
   2.8200000000000003       ,  -0.95774830728718874       ,  -0.41977719912070627     
   2.8399999999999999       ,  -0.99078423792443426       ,  -0.46963661414670660     
   2.8599999999999999       ,   -1.0221767491359348       ,  -0.52773795299776638     
   2.8799999999999999       ,   -1.0519224471403608       ,  -0.59389546609886712     
   2.8999999999999999       ,   -1.0800231897661872       ,  -0.66761746566151836     
   2.9199999999999999       ,   -1.1064648252562785       ,  -0.74809751870475072     
   2.9399999999999999       ,   -1.1311942376443127       ,  -0.83421439078054671     
   2.9600000000000000       ,   -1.1540959875595238       ,  -0.92454117111113021     
   2.9800000000000000       ,   -1.1749699298662555       ,   -1.0173637628757264     
   3.0000000000000000       ,   -1.1935112165680690       ,   -1.1107086569053186     
   3.0200000000000000       ,   -1.2092940520905313       ,   -1.2023796305756433     
   3.0400000000000000       ,   -1.2217604586558344       ,   -1.2900027345594265     
   3.0600000000000001       ,   -1.2302151353126227       ,   -1.3710786571847313     
   3.0800000000000001       ,   -1.2338272615928219       ,   -1.4430412985785026     
   3.1000000000000001       ,   -1.2316398147672183       ,   -1.5033211536187807     
   3.1200000000000001       ,   -1.2225866496599744       ,   -1.5494119026480262     
   3.1400000000000001       ,   -1.2055172452486265       ,   -1.5789384498569301     
   3.1600000000000001       ,   -1.1792286674539005       ,   -1.5897245381327516     
   3.1800000000000002       ,   -1.1425039479676613       ,   -1.5798580115385148     
   3.2000000000000002       ,   -1.0941557501083143       ,   -1.5477517964154119     
   3.2200000000000002       ,   -1.0330738993713211       ,   -1.4921987315489331     
   3.2400000000000002       ,  -0.95827511217014127       ,   -1.4124184971298002     
   3.2600000000000002       ,  -0.86895307302505942       ,   -1.3080950695717442     
   3.2800000000000002       ,  -0.76452689759097647       ,   -1.1794033607826782     
   3.3000000000000003       ,  -0.64468598307726199       ,   -1.0270239804225394     
   3.3200000000000003       ,  -0.50942929236496182       ,  -0.85214538039550691     
   3.3400000000000003       ,  -0.35909724374396979       ,  -0.65645299308012028     
   3.3599999999999999       ,  -0.19439458160896120       ,  -0.44210534803115797     
   3.3799999999999999       ,   -1.6402878344008564E-002  ,  -0.21169753452571760     
   3.3999999999999999       ,   0.17341834537059714       ,    3.1787242807728266E-002
   3.4199999999999999       ,   0.37324250753466037       ,   0.28503690333210563     
   3.4399999999999999       ,   0.58089906195907492       ,   0.54447907538285234     
   3.4600000000000000       ,   0.79390856577795521       ,   0.80635727898634424     
   3.4800000000000000       ,    1.0095290321181709       ,    1.0668127090912127     
   3.5000000000000000       ,    1.2248124518223895       ,    1.3219694309695300     
   3.5200000000000000       ,    1.4366699688589992       ,    1.5680206736824351     
   3.5400000000000000       ,    1.6419438424362003       ,    1.8013138521598346     
   3.5600000000000001       ,    1.8374840392282277       ,    2.0184319662705956     
   3.5800000000000001       ,    2.0202270836200120       ,    2.2162691165754977     
   3.6000000000000001       ,    2.1872746618217280       ,    2.3920980390878381     
   3.6200000000000001       ,    2.3359694332812064       ,    2.5436277906992553     
   3.6400000000000001       ,    2.4639655527902433       ,    2.6690500060287037     
   3.6600000000000001       ,    2.5692915482413610       ,    2.7670724862855050     
   3.6800000000000002       ,    2.6504034277961859       ,    2.8369392604639048     
   3.7000000000000002       ,    2.7062261985261853       ,    2.8784366665220231     
   3.7200000000000002       ,    2.7361823555158908       ,    2.8918854218330332     
   3.7400000000000002       ,    2.7402063324100308       ,    2.8781190742566212     
   3.7600000000000002       ,    2.7187443756847625       ,    2.8384496337080072     
   3.7800000000000002       ,    2.6727397981981325       ,    2.7746215655570681     
   3.8000000000000003       ,    2.6036040645863756       ,    2.6887556689156109     
   3.8200000000000003       ,    2.5131746433845539       ,    2.5832846535580738     
   3.8400000000000003       ,    2.4036610104407261       ,    2.4608824593039800     
   3.8599999999999999       ,    2.2775805885596068       ,    2.3243895236992818     
   3.8799999999999999       ,    2.1376867445115155       ,    2.1767362926578437     
   3.8999999999999999       ,    1.9868912241770722       ,    2.0208672817992661     
   3.9199999999999999       ,    1.8281835801837576       ,    1.8596679336215032     
   3.9399999999999999       ,    1.6645502277313047       ,    1.6958963800877211     
   3.9600000000000000       ,    1.4988957507179348       ,    1.5321220169354770     
   3.9800000000000000       ,    1.3339689727031636       ,    1.3706725326276528     
   4.0000000000000000       ,    1.1722961101770433       ,    1.2135907210203902     
   4.0199999999999996       ,    1.0161230469324374       ,    1.0626020539009631     
   4.0400000000000000       ,   0.86736841900198680       ,   0.91909361022276526     
   4.0599999999999996       ,   0.72758879319520087       ,   0.78410456664815753     
   4.0800000000000001       ,   0.59795677440966910       ,   0.65832806275517786     
   4.0999999999999996       ,   0.47925240471939295       ,   0.54212387766590475     
   4.1199999999999992       ,   0.37186773868093792       ,   0.43554100594591827     
   4.1399999999999997       ,   0.27582401236036785       ,   0.33834891131293932     
   4.1599999999999993       ,   0.19080038567828989       ,   0.25007597732809733     
   4.1799999999999997       ,   0.11617284492889154       ,   0.17005347325212986     
   4.1999999999999993       ,    5.1061518988247699E-002  ,    9.7463216841323502E-002
   4.2199999999999998       ,   -5.6155994097532259E-003  ,    3.1387047814909592E-002
   4.2399999999999993       ,   -5.5084717952014042E-002  ,   -2.9143772715480489E-002
   4.2599999999999998       ,   -9.8656381328699347E-002  ,   -8.5101051735937072E-002
   4.2799999999999994       ,  -0.13766597477130407       ,  -0.13741572334984464     
   4.2999999999999998       ,  -0.17341680997079825       ,  -0.18693896537463123     
   4.3199999999999994       ,  -0.20712784690442290       ,  -0.23440961893652398     
   4.3399999999999999       ,  -0.23988786815263674       ,  -0.28042887376336434     
   4.3599999999999994       ,  -0.27261762072756779       ,  -0.32544287038123215     
   4.3799999999999999       ,  -0.30604108707902267       ,  -0.36973354238482659     
   4.3999999999999995       ,  -0.34066665645679955       ,  -0.41341769004336870     
   4.4199999999999999       ,  -0.37677855609772082       ,  -0.45645395334794170     
   4.4399999999999995       ,  -0.41443848528215083       ,  -0.49865705030297830     
   4.4600000000000000       ,  -0.45349699061809290       ,  -0.53971837593778349     
   4.4799999999999995       ,  -0.49361374369898214       ,  -0.57923182889751812     
   4.5000000000000000       ,  -0.53428554695511010       ,  -0.61672355355767750     
   4.5199999999999996       ,  -0.57488061260415202       ,  -0.65168416235384719     
   4.5400000000000000       ,  -0.61467744327250484       ,  -0.68360193916030976     
   4.5599999999999996       ,  -0.65290649854131466       ,  -0.71199552147063638     
   4.5800000000000001       ,  -0.68879276381246479       ,  -0.73644461584487864     
