r(A) ,   X_ray-calc  ,   X_ray_exp_renorm
   2.0000000000000000E-002  ,   0.14259143949459283       ,   -1.6360561904266324     
   4.0000000000000001E-002  ,    6.1646167470326911E-002  ,   -1.6897962875259294     
   5.9999999999999998E-002  ,   -7.0569040441185393E-002  ,   -1.7776675341939632     
   8.0000000000000002E-002  ,  -0.25011174729921648       ,   -1.8971856915750538     
  0.10000000000000001       ,  -0.47165469670541404       ,   -2.0449889271312149     
  0.12000000000000001       ,  -0.72866946137897093       ,   -2.2169489443273918     
  0.13999999999999999       ,   -1.0136507732889415       ,   -2.4083069673489375     
  0.16000000000000000       ,   -1.3183733133211155       ,   -2.6138297620101323     
  0.17999999999999999       ,   -1.6341715705077782       ,   -2.8279801791467407     
  0.19999999999999998       ,   -1.9522325680351427       ,   -3.0450962149279870     
  0.22000000000000000       ,   -2.2638908256113575       ,   -3.2595723112568624     
  0.23999999999999999       ,   -2.5609149005388243       ,   -3.4660365780112663     
  0.26000000000000001       ,   -2.8357752227992616       ,   -3.6595178079132684     
  0.28000000000000003       ,   -3.0818836970793089       ,   -3.8355965662575700     
  0.30000000000000004       ,   -3.2937966566651782       ,   -3.9905352552200810     
  0.32000000000000001       ,   -3.4673741767282662       ,   -4.1213828519798508     
  0.34000000000000002       ,   -3.5998904321300791       ,   -4.2260509706820351     
  0.36000000000000004       ,   -3.6900916523257083       ,   -4.3033589640774519     
  0.38000000000000000       ,   -3.7382002110165562       ,   -4.3530469211198355     
  0.40000000000000002       ,   -3.7458654144563197       ,   -4.3757565889380023     
  0.42000000000000004       ,   -3.7160635420657546       ,   -4.3729814075733691     
  0.44000000000000000       ,   -3.6529515703452238       ,   -4.3469879505829105     
  0.46000000000000002       ,   -3.5616807047950552       ,   -4.3007120733512343     
  0.48000000000000004       ,   -3.4481772909128097       ,   -4.2376339469533670     
  0.50000000000000000       ,   -3.3188998204913189       ,   -4.1616368671861776     
  0.52000000000000002       ,   -3.1805815514903735       ,   -4.0768552509238614     
  0.54000000000000004       ,   -3.0399686903188412       ,   -3.9875175476009050     
  0.56000000000000005       ,   -2.9035641306161302       ,   -3.8977898927139165     
  0.58000000000000007       ,   -2.7773864037601932       ,   -3.8116262113752342     
  0.59999999999999998       ,   -2.6667527894423015       ,   -3.7326301500250385     
  0.62000000000000000       ,   -2.5760944900160960       ,   -3.6639336882240587     
  0.64000000000000001       ,   -2.5088104331547587       ,   -3.6080965821065454     
  0.66000000000000003       ,   -2.4671646880085709       ,   -3.5670299450498577     
  0.68000000000000005       ,   -2.4522307238981638       ,   -3.5419463131140407     
  0.70000000000000007       ,   -2.4638838774059257       ,   -3.5333375104062803     
  0.72000000000000008       ,   -2.5008414970202666       ,   -3.5409805627134401     
  0.73999999999999999       ,   -2.5607483785057648       ,   -3.5639708473487448     
  0.76000000000000001       ,   -2.6403033610417208       ,   -3.6007806532658324     
  0.78000000000000003       ,   -2.7354213910743193       ,   -3.6493403959338298     
  0.80000000000000004       ,   -2.8414240373894435       ,   -3.7071389203739291     
  0.82000000000000006       ,   -2.9532504069214034       ,   -3.7713386623042351     
  0.84000000000000008       ,   -3.0656797043179815       ,   -3.8389009446759665     
  0.85999999999999999       ,   -3.1735563241860589       ,   -3.9067163813152312     
  0.88000000000000000       ,   -3.2720083740999297       ,   -3.9717352498402532     
  0.90000000000000002       ,   -3.3566508953506888       ,   -4.0310927837926300     
  0.92000000000000004       ,   -3.4237657593901076       ,   -4.0822246127189699     
  0.94000000000000006       ,   -3.4704512399744853       ,   -4.1229680352379345     
  0.96000000000000008       ,   -3.4947355511064879       ,   -4.1516454237905238     
  0.97999999999999998       ,   -3.4956501457186593       ,   -4.1671268049106276     
   1.0000000000000000       ,   -3.4732602282784901       ,   -4.1688695049264464     
   1.0200000000000000       ,   -3.4286516791606658       ,   -4.1569336640503671     
   1.0400000000000000       ,   -3.3638753498559271       ,   -4.1319733658344235     
   1.0600000000000001       ,   -3.2818513958660249       ,   -4.0952040673341763     
   1.0800000000000001       ,   -3.1862379011089601       ,   -4.0483479122197972     
   1.1000000000000001       ,   -3.0812694517546291       ,   -3.9935593308683837     
   1.1200000000000001       ,   -2.9715724842570048       ,   -3.9333340479873575     
   1.1400000000000001       ,   -2.8619651173835323       ,   -3.8704052039483234     
   1.1600000000000001       ,   -2.7572497481992495       ,   -3.8076307306327162     
   1.1799999999999999       ,   -2.6620069269082469       ,   -3.7478763922628402     
   1.2000000000000000       ,   -2.5803989182974036       ,   -3.6938989990788214     
   1.2200000000000000       ,   -2.5159909149973743       ,   -3.6482342262724936     
   1.2400000000000000       ,   -2.4715971098673046       ,   -3.6130932284259640     
   1.2600000000000000       ,   -2.4491577938823608       ,   -3.5902718432642344     
   1.2800000000000000       ,   -2.4496523653256781       ,   -3.5810756459713828     
   1.3000000000000000       ,   -2.4730516684236798       ,   -3.5862634696778377     
   1.3200000000000001       ,   -2.5183114844411394       ,   -3.6060112759476479     
   1.3400000000000001       ,   -2.5834073399276862       ,   -3.6398974708798231     
   1.3600000000000001       ,   -2.6654091415993135       ,   -3.6869099490443511     
   1.3800000000000001       ,   -2.7605925609771900       ,   -3.7454743404411972     
   1.4000000000000001       ,   -2.8645826369307614       ,   -3.8135021655946022     
   1.4200000000000002       ,   -2.9725237975769221       ,   -3.8884568992367616     
   1.4399999999999999       ,   -3.0792694736068422       ,   -3.9674353290567295     
   1.4600000000000000       ,   -3.1795837223303329       ,   -4.0472610938382116     
   1.4800000000000000       ,   -3.2683468336028163       ,   -4.1245869112694242     
   1.5000000000000000       ,   -3.3407567611239388       ,   -4.1960017706924262     
   1.5200000000000000       ,   -3.3925184183705119       ,   -4.2581392752961227     
   1.5400000000000000       ,   -3.4200133878341785       ,   -4.3077833712374369     
   1.5600000000000001       ,   -3.4204433931268325       ,   -4.3419678918102846     
   1.5800000000000001       ,   -3.3919419423893880       ,   -4.3580666618014110     
   1.6000000000000001       ,   -3.3336498248391848       ,   -4.3538713346996110     
   1.6200000000000001       ,   -3.2457515786181532       ,   -4.3276546537480662     
   1.6400000000000001       ,   -3.1294715897153149       ,   -4.2782174142833274     
   1.6600000000000001       ,   -2.9870300672752310       ,   -4.2049180347717439     
   1.6800000000000002       ,   -2.8215607074504949       ,   -4.1076842919003358     
   1.7000000000000000       ,   -2.6369933447189857       ,   -3.9870074156136801     
   1.7200000000000000       ,   -2.4379062385098877       ,   -3.8439193488764802     
   1.7400000000000000       ,   -2.2293538022027324       ,   -3.6799545320523390     
   1.7600000000000000       ,   -2.0166765070964359       ,   -3.4970980539198666     
   1.7800000000000000       ,   -1.8053003513609394       ,   -3.2977224049125140     
   1.8000000000000000       ,   -1.6005336496707181       ,   -3.0845153617105967     
   1.8200000000000001       ,   -1.4073689612208435       ,   -2.8604017188328035     
   1.8400000000000001       ,   -1.2302977322011908       ,   -2.6284616599574528     
   1.8600000000000001       ,   -1.0731446955112405       ,   -2.3918485314621156     
   1.8800000000000001       ,  -0.93892826880562019       ,   -2.1537086494809858     
   1.9000000000000001       ,  -0.82975215542388769       ,   -1.9171055498655720     
   1.9200000000000002       ,  -0.74673212378797749       ,   -1.6849507912811423     
   1.9399999999999999       ,  -0.68996056895679680       ,   -1.4599430613341613     
   1.9600000000000000       ,  -0.65850999979214897       ,   -1.2445169319432048     
   1.9800000000000000       ,  -0.65047510406911091       ,   -1.0408021819214157     
   2.0000000000000000       ,  -0.66305157989083896       ,  -0.85059417081575106     
   2.0200000000000000       ,  -0.69264854127018305       ,  -0.67533532660122508     
   2.0400000000000000       ,  -0.73503006113954139       ,  -0.51610741751791755     
   2.0600000000000001       ,  -0.78548035285121931       ,  -0.37363392966058973     
   2.0800000000000001       ,  -0.83898625026233686       ,  -0.24829157866013804     
   2.1000000000000001       ,  -0.89043005648474716       ,  -0.14012975457706950     
   2.1200000000000001       ,  -0.93478551188805648       ,   -4.8896539215915656E-002
   2.1400000000000001       ,  -0.96730959174388187       ,    2.5930153758056913E-002
   2.1600000000000001       ,  -0.98372308076886117       ,    8.5107784894784835E-002
   2.1800000000000002       ,  -0.98037337278362147       ,   0.12959216496264289     
   2.2000000000000002       ,  -0.95437368568071990       ,   0.16049952234361206     
   2.2200000000000002       ,  -0.90371383277217332       ,   0.17906883395459600     
   2.2400000000000002       ,  -0.82733881160897582       ,   0.18662540712386888     
   2.2600000000000002       ,  -0.72519271481217662       ,   0.18454649254209801     
   2.2800000000000002       ,  -0.59822678454198175       ,   0.17422949166299254     
   2.3000000000000003       ,  -0.44837177113269311       ,   0.15706310863276282     
   2.3200000000000003       ,  -0.27847606535198854       ,   0.13440159892318254     
   2.3399999999999999       ,   -9.2212303001687881E-002  ,   0.10754209474284956     
   2.3599999999999999       ,   0.10604375552337790       ,    7.7704849387321695E-002
   2.3799999999999999       ,   0.31135732949641409       ,    4.6016144926574097E-002
   2.3999999999999999       ,   0.51839622410825248       ,    1.3493553308614927E-002
   2.4199999999999999       ,   0.72160393856431515       ,   -1.8966769414245022E-002
   2.4399999999999999       ,   0.91537799497189254       ,   -5.0601044710499102E-002
   2.4600000000000000       ,    1.0942471688980284       ,   -8.0787309846471325E-002
   2.4800000000000000       ,    1.2530415030607107       ,  -0.10905345570680386     
   2.5000000000000000       ,    1.3870494113262988       ,  -0.13508386837847239     
   2.5200000000000000       ,    1.4921568089233350       ,  -0.15872454959617621     
   2.5400000000000000       ,    1.5649640069241528       ,  -0.17998646263513585     
   2.5600000000000001       ,    1.6028770487893791       ,  -0.19904673351900201     
   2.5800000000000001       ,    1.6041712037068423       ,  -0.21624724315372459     
   2.6000000000000001       ,    1.5680254222954919       ,  -0.23209008374052464     
   2.6200000000000001       ,    1.4945276606274265       ,  -0.24722933040913031     
   2.6400000000000001       ,    1.3846520448396775       ,  -0.26245860212084188     
   2.6600000000000001       ,    1.2402098397598171       ,  -0.27869395764856608     
   2.6800000000000002       ,    1.0637770639771063       ,  -0.29695179318141707     
   2.7000000000000002       ,   0.85860232921367086       ,  -0.31832157525347021     
   2.7200000000000002       ,   0.62849904894646058       ,  -0.34393345081989801     
   2.7400000000000002       ,   0.37772654281865731       ,  -0.37492101727333582     
   2.7600000000000002       ,   0.11086475036546840       ,  -0.41237979852106932     
   2.7800000000000002       ,  -0.16731274085527403       ,  -0.45732224652931519     
   2.8000000000000003       ,  -0.45196284420146587       ,  -0.51063035722959993     
   2.8200000000000003       ,  -0.73829016121875446       ,  -0.57300724090578969     
   2.8399999999999999       ,   -1.0216535898199630       ,  -0.64492920565079614     
   2.8599999999999999       ,   -1.2976593813336457       ,  -0.72660008441050572     
   2.8799999999999999       ,   -1.5622384119758705       ,  -0.81790964913345865     
   2.8999999999999999       ,   -1.8117062292415347       ,  -0.91839799930036314     
   2.9199999999999999       ,   -2.0428052497208280       ,   -1.0272277789506929     
   2.9399999999999999       ,   -2.2527292857971162       ,   -1.1431659617215832     
   2.9600000000000000       ,   -2.4391313301460320       ,   -1.2645767463177944     
   2.9800000000000000       ,   -2.6001161976489122       ,   -1.3894268278786988     
   3.0000000000000000       ,   -2.7342201873938499       ,   -1.5153039602648313     
   3.0200000000000000       ,   -2.8403803614932945       ,   -1.6394493103187009     
   3.0400000000000000       ,   -2.9178963274246716       ,   -1.7588036409382559     
   3.0600000000000001       ,   -2.9663875482531914       ,   -1.8700668614709937     
   3.0800000000000001       ,   -2.9857491892176835       ,   -1.9697699698966300     
   3.1000000000000001       ,   -2.9761093455014946       ,   -2.0543579014819260     
   3.1200000000000001       ,   -2.9377901968840470       ,   -2.1202813137913870     
   3.1400000000000001       ,   -2.8712752185804229       ,   -2.1640948987587545     
   3.1600000000000001       ,   -2.7771840671097059       ,   -2.1825594386339815     
   3.1800000000000002       ,   -2.6562561825256839       ,   -2.1727445318563130     
   3.2000000000000002       ,   -2.5093435334159486       ,   -2.1321287224664052     
   3.2200000000000002       ,   -2.3374123095621457       ,   -2.0586936844023098     
   3.2400000000000002       ,   -2.1415527696962746       ,   -1.9510091478153957     
   3.2600000000000002       ,   -1.9229959074620679       ,   -1.8083054118811339     
   3.2800000000000002       ,   -1.6831351337103857       ,   -1.6305305662760250     
   3.3000000000000003       ,   -1.4235508098291192       ,   -1.4183899355883449     
   3.3200000000000003       ,   -1.1460352221650045       ,   -1.1733657568063254     
   3.3400000000000003       ,  -0.85261547327069764       ,  -0.89771568469737117     
   3.3599999999999999       ,  -0.54557178706303311       ,  -0.59444937448948743     
   3.3799999999999999       ,  -0.22744888099959182       ,  -0.26728309369429787     
   3.3999999999999999       ,    9.8941658218631837E-002  ,    7.9426959358330565E-002
   3.4199999999999999       ,   0.43052966133322929       ,   0.44077122972351812     
   3.4399999999999999       ,   0.76400649825339095       ,   0.81139117858229726     
   3.4600000000000000       ,    1.0958576414451628       ,    1.1855987220862705     
   3.4800000000000000       ,    1.4224076651373125       ,    1.5575074456088416     
   3.5000000000000000       ,    1.7398770440888638       ,    1.9211718464544789     
   3.5200000000000000       ,    2.0444494967525064       ,    2.2707305224632504     
   3.5400000000000000       ,    2.3323480392872025       ,    2.6005490233974391     
   3.5600000000000001       ,    2.5999174063638271       ,    2.9053580261139578     
   3.5800000000000001       ,    2.8437100765047583       ,    3.1803825876436340     
   3.6000000000000001       ,    3.0605728342438234       ,    3.4214584712388230     
   3.6200000000000001       ,    3.2477306242332031       ,    3.6251319224920802     
   3.6400000000000001       ,    3.4028644135080293       ,    3.7887397836986176     
   3.6600000000000001       ,    3.5241798813669876       ,    3.9104674577050553     
   3.6800000000000002       ,    3.6104639994267855       ,    3.9893829461754087     
   3.7000000000000002       ,    3.6611269389223167       ,    4.0254459665502909     
   3.7200000000000002       ,    3.6762272340236417       ,    4.0194919693579365     
   3.7400000000000002       ,    3.6564787194213308       ,    3.9731917037139417     
   3.7600000000000002       ,    3.6032384239275896       ,    3.8889877840588931     
   3.7800000000000002       ,    3.5184753122439822       ,    3.7700104662851590     
   3.8000000000000003       ,    3.4047204950573087       ,    3.6199755189825176     
   3.8200000000000003       ,    3.2650002430022131       ,    3.4430676509615443     
   3.8400000000000003       ,    3.1027538128771783       ,    3.2438134086117048     
   3.8599999999999999       ,    2.9217386965422474       ,    3.0269477696838210     
   3.8799999999999999       ,    2.7259264087084061       ,    2.7972788226160930     
   3.8999999999999999       ,    2.5193923177991024       ,    2.5595549270312445     
   3.9199999999999999       ,    2.3062032774962447       ,    2.3183386018568242     
   3.9399999999999999       ,    2.0903069242788361       ,    2.0778910888297148     
   3.9600000000000000       ,    1.8754264630376145       ,    1.8420711027180832     
   3.9800000000000000       ,    1.6649645697491928       ,    1.6142507223537139     
   4.0000000000000000       ,    1.4619197044603929       ,    1.3972507199352282     
   4.0199999999999996       ,    1.2688176625983449       ,    1.1932968951223952     
   4.0400000000000000       ,    1.0876606163661768       ,    1.0039982029670116     
   4.0599999999999996       ,   0.91989523375812343       ,   0.83034667010418395     
   4.0800000000000001       ,   0.76640073719933988       ,   0.67273831171845944     
   4.0999999999999996       ,   0.62749700615419945       ,   0.53101352178073913     
   4.1199999999999992       ,   0.50297206871017364       ,   0.40451473829212192     
   4.1399999999999997       ,   0.39212759661975205       ,   0.29215860827873746     
   4.1599999999999993       ,   0.29384034582004825       ,   0.19251941476614134     
   4.1799999999999997       ,   0.20663689685865633       ,   0.10392019605220891     
   4.1999999999999993       ,   0.12877857020328673       ,    2.4527797238531025E-002
   4.2199999999999998       ,    5.8353038876198353E-002  ,   -4.7551949458958610E-002
   4.2399999999999993       ,   -6.6310512402445220E-003  ,  -0.11418261599823024     
   4.2599999999999998       ,   -6.8150206999554888E-002  ,  -0.17711259820861588     
   4.2799999999999994       ,  -0.12807662715138671       ,  -0.23790064815722001     
   4.2999999999999998       ,  -0.18809659146510768       ,  -0.29785411831543968     
   4.3199999999999994       ,  -0.24963976998403153       ,  -0.35798193958564495     
   4.3399999999999999       ,  -0.31382203721936086       ,  -0.41896371025497997     
   4.3599999999999994       ,  -0.38140379222086512       ,  -0.48113558645116566     
   4.3799999999999999       ,  -0.45276512758519627       ,  -0.54449296444423145     
   4.3999999999999995       ,  -0.52789848595328459       ,  -0.60870925914895013     
   4.4199999999999999       ,  -0.60641872049253021       ,  -0.67316943852270472     
   4.4399999999999995       ,  -0.68758976584818365       ,  -0.73701639534353769     
   4.4600000000000000       ,  -0.77036645695170158       ,  -0.79920774826460417     
   4.4799999999999995       ,  -0.85344943185350197       ,  -0.85858028143409215     
   4.5000000000000000       ,  -0.93535054535709161       ,  -0.91391897019618040     
   4.5199999999999996       ,   -1.0144658226457648       ,  -0.96402740827706102     
   4.5400000000000000       ,   -1.0891527115145514       ,   -1.0077964529123191     
   4.5599999999999996       ,   -1.1578082580825757       ,   -1.0442680366711248     
   4.5800000000000001       ,   -1.2189448380680432       ,   -1.0726913510775593     
