r(A) ,   X_ray-calc  ,   X_ray_exp_renorm
   2.0000000000000000E-002  ,   -1.2966408563962417       ,   -2.0628342635778081     
   4.0000000000000001E-002  ,   -1.3438892566811720       ,   -2.0850625257831190     
   5.9999999999999998E-002  ,   -1.4209784697030485       ,   -2.1213265314513294     
   8.0000000000000002E-002  ,   -1.5254839014429011       ,   -2.1704812705421919     
  0.10000000000000001       ,   -1.6541338576009195       ,   -2.2309818462399109     
  0.12000000000000001       ,   -1.8029266910355819       ,   -2.3009389391470205     
  0.13999999999999999       ,   -1.9672736784638993       ,   -2.3781864445625405     
  0.16000000000000000       ,   -2.1421622371046611       ,   -2.4603587258904986     
  0.17999999999999999       ,   -2.3223333369394767       ,   -2.5449745696893511     
  0.19999999999999998       ,   -2.5024664471561198       ,   -2.6295246835012791     
  0.22000000000000000       ,   -2.6773650957404440       ,   -2.7115594556642257     
  0.23999999999999999       ,   -2.8421361285880846       ,   -2.7887737012394762     
  0.26000000000000001       ,   -2.9923560279170021       ,   -2.8590852494217249     
  0.28000000000000003       ,   -3.1242181777610942       ,   -2.9207044797945194     
  0.30000000000000004       ,   -3.2346557255346076       ,   -2.9721922772861249     
  0.32000000000000001       ,   -3.3214356526228239       ,   -3.0125043340814819     
  0.34000000000000002       ,   -3.3832207953485072       ,   -3.0410202627464207     
  0.36000000000000004       ,   -3.4195978058409526       ,   -3.0575565771338051     
  0.38000000000000000       ,   -3.4310703610982465       ,   -3.0623632228454523     
  0.40000000000000002       ,   -3.4190182661029578       ,   -3.0561039725145798     
  0.42000000000000004       ,   -3.3856244009124081       ,   -3.0398216181356519     
  0.44000000000000000       ,   -3.3337726814212241       ,   -3.0148894690648969     
  0.46000000000000002       ,   -3.2669212917496799       ,   -2.9829511778391402     
  0.48000000000000004       ,   -3.1889563611055354       ,   -2.9458513469121796     
  0.50000000000000000       ,   -3.1040319646872883       ,   -2.9055597014607413     
  0.52000000000000002       ,   -3.0164028003086103       ,   -2.8640918342452744     
  0.54000000000000004       ,   -2.9302561128774522       ,   -2.8234296302742536     
  0.56000000000000005       ,   -2.8495494006310298       ,   -2.7854444586202076     
  0.58000000000000007       ,   -2.7778601433280063       ,   -2.7518260779238930     
  0.59999999999999998       ,   -2.7182532567244855       ,   -2.7240199474010791     
  0.62000000000000000       ,   -2.6731712223919084       ,   -2.7031752774857658     
  0.64000000000000001       ,   -2.6443508985956310       ,   -2.6901057085488804     
  0.66000000000000003       ,   -2.6327699251109946       ,   -2.6852639907207179     
  0.68000000000000005       ,   -2.6386244367508027       ,   -2.6887314736329562     
  0.70000000000000007       ,   -2.6613385451470553       ,   -2.7002226245429730     
  0.72000000000000008       ,   -2.6996047860399517       ,   -2.7191042003104640     
  0.73999999999999999       ,   -2.7514535100036293       ,   -2.7444281264572985     
  0.76000000000000001       ,   -2.8143480661496647       ,   -2.7749766074081368     
  0.78000000000000003       ,   -2.8853016349271274       ,   -2.8093175264156898     
  0.80000000000000004       ,   -2.9610107460365227       ,   -2.8458678093348504     
  0.82000000000000006       ,   -3.0379999018862884       ,   -2.8829621376392227     
  0.84000000000000008       ,   -3.1127713387759068       ,   -2.9189242132521440     
  0.85999999999999999       ,   -3.1819538107033725       ,   -2.9521377069592578     
  0.88000000000000000       ,   -3.2424443782895014       ,   -2.9811140649421795     
  0.90000000000000002       ,   -3.2915375219221383       ,   -3.0045545013596011     
  0.92000000000000004       ,   -3.3270364585077727       ,   -3.0214037615877034     
  0.94000000000000006       ,   -3.3473423010321506       ,   -3.0308935893880511     
  0.96000000000000008       ,   -3.3515176275629845       ,   -3.0325742570576484     
  0.97999999999999998       ,   -3.3393220830285291       ,   -3.0263330028139315     
   1.0000000000000000       ,   -3.3112187798695314       ,   -3.0123987444287237     
   1.0200000000000000       ,   -3.2683514462010739       ,   -2.9913329812862304     
   1.0400000000000000       ,   -3.2124934449274827       ,   -2.9640073369917039     
   1.0600000000000001       ,   -3.1459709075249909       ,   -2.9315687102147590     
   1.0800000000000001       ,   -3.0715632477062980       ,   -2.8953934726942521     
   1.1000000000000001       ,   -2.9923852029896412       ,   -2.8570325623880408     
   1.1200000000000001       ,   -2.9117552622776710       ,   -2.8181496514815128     
   1.1400000000000001       ,   -2.8330558480692849       ,   -2.7804548115343928     
   1.1600000000000001       ,   -2.7595909142559196       ,   -2.7456362433307886     
   1.1799999999999999       ,   -2.6944466848520214       ,   -2.7152926828776405     
   1.2000000000000000       ,   -2.6403610949425445       ,   -2.6908690374413227     
   1.2200000000000000       ,   -2.5996071111984964       ,   -2.6735976505117485     
   1.2400000000000000       ,   -2.5738945228305994       ,   -2.6644473499276642     
   1.2600000000000000       ,   -2.5642940300728614       ,   -2.6640821102868042     
   1.2800000000000000       ,   -2.5711865483111356       ,   -2.6728307733048724     
   1.3000000000000000       ,   -2.5942396293929533       ,   -2.6906688343589606     
   1.3200000000000001       ,   -2.6324118189985191       ,   -2.7172128380088019     
   1.3400000000000001       ,   -2.6839846639680784       ,   -2.7517274486041190     
   1.3600000000000001       ,   -2.7466210003593270       ,   -2.7931447929693234     
   1.3800000000000001       ,   -2.8174471346033703       ,   -2.8400952286950396     
   1.4000000000000001       ,   -2.8931556162412417       ,   -2.8909482904079424     
   1.4200000000000002       ,   -2.9701245265423037       ,   -2.9438622220951363     
   1.4399999999999999       ,   -3.0445486020300585       ,   -2.9968402280582671     
   1.4600000000000000       ,   -3.1125770976749645       ,   -3.0477913772389336     
   1.4800000000000000       ,   -3.1704530854566544       ,   -3.0945939810210872     
   1.5000000000000000       ,   -3.2146488859560658       ,   -3.1351592352183997     
   1.5200000000000000       ,   -3.2419925408949721       ,   -3.1674929713534987     
   1.5400000000000000       ,   -3.2497806420600930       ,   -3.1897534957586102     
   1.5600000000000001       ,   -3.2358734180255819       ,   -3.2003036996525709     
   1.5800000000000001       ,   -3.1987687187995819       ,   -3.1977558887231439     
   1.6000000000000001       ,   -3.1376523984541591       ,   -3.1810080942813554     
   1.6200000000000001       ,   -3.0524235409988090       ,   -3.1492709756335606     
   1.6400000000000001       ,   -2.9436939663437451       ,   -3.1020847899093202     
   1.6600000000000001       ,   -2.8127624509710438       ,   -3.0393262759217525     
   1.6800000000000002       ,   -2.6615650620270497       ,   -2.9612056578599359     
   1.7000000000000000       ,   -2.4926038960521635       ,   -2.8682543088915664     
   1.7200000000000000       ,   -2.3088573000196249       ,   -2.7613039118379668     
   1.7400000000000000       ,   -2.1136753031265791       ,   -2.6414582037848273     
   1.7600000000000000       ,   -1.9106644791822625       ,   -2.5100585860444018     
   1.7800000000000000       ,   -1.7035667746215932       ,   -2.3686450152028184     
   1.8000000000000000       ,   -1.4961369667069402       ,   -2.2189136627884816     
   1.8200000000000001       ,   -1.2920233586354228       ,   -2.0626728409074433     
   1.8400000000000001       ,   -1.0946560789615634       ,   -1.9017986422076822     
   1.8600000000000001       ,  -0.90714694518453498       ,   -1.7381916403896012     
   1.8800000000000001       ,  -0.73220429538097542       ,   -1.5737358498918397     
   1.9000000000000001       ,  -0.57206551294529384       ,   -1.4102609597223730     
   1.9200000000000002       ,  -0.42844919795982067       ,   -1.2495086472026036     
   1.9399999999999999       ,  -0.30252810783693873       ,   -1.0931035537995530     
   1.9600000000000000       ,  -0.19492313485567889       ,  -0.94252927846240098     
   1.9800000000000000       ,  -0.10571774458682991       ,  -0.79910952471590735     
   2.0000000000000000       ,   -3.4491501344207511E-002  ,  -0.66399433599127677     
   2.0200000000000000       ,    1.9629413464988209E-002  ,  -0.53815117768771548     
   2.0400000000000000       ,    5.7907398917245514E-002  ,  -0.42236048088008921     
   2.0600000000000001       ,    8.1917543012686583E-002  ,  -0.31721515601493133     
   2.0800000000000001       ,    9.3464177236977891E-002  ,  -0.22312351776946784     
   2.1000000000000001       ,    9.4493596299863050E-002  ,  -0.14031503464777381     
   2.1200000000000001       ,    8.7006685423946517E-002  ,   -6.8848326842241819E-002
   2.1400000000000001       ,    7.2975063296340570E-002  ,   -8.6208793814101653E-003
   2.1600000000000001       ,    5.4264066456600979E-002  ,    4.0619991127913875E-002
   2.1800000000000002       ,    3.2565486069239223E-002  ,    7.9265285895414817E-002
   2.2000000000000002       ,    9.3424416341706812E-003  ,   0.10783185464923878     
   2.2200000000000002       ,   -1.4211836517442880E-002  ,   0.12694946421717010     
   2.2400000000000002       ,   -3.7200214661131083E-002  ,   0.13734745748858210     
   2.2600000000000002       ,   -5.9032449828875677E-002  ,   0.13984096380154487     
   2.2800000000000002       ,   -7.9420862046751223E-002  ,   0.13531655010638244     
   2.3000000000000003       ,   -9.8361836979855746E-002  ,   0.12471715613924002     
   2.3200000000000003       ,  -0.11610471044742122       ,   0.10902614043453333     
   2.3399999999999999       ,  -0.13311009870411036       ,    8.9250279531908575E-002
   2.3599999999999999       ,  -0.15000014345959506       ,    6.6401610342399164E-002
   2.3799999999999999       ,  -0.16750342277688215       ,    4.1478083378764158E-002
   2.3999999999999999       ,  -0.18639742839741616       ,    1.5443098441413851E-002
   2.4199999999999999       ,  -0.20745152287692753       ,   -1.0795881448276246E-002
   2.4399999999999999       ,  -0.23137316849346964       ,   -3.6409304963344359E-002
   2.4600000000000000       ,  -0.25875997245555343       ,   -6.0667621907445082E-002
   2.4800000000000000       ,  -0.29005973323310169       ,   -8.2962876466425320E-002
   2.5000000000000000       ,  -0.32554021940861794       ,  -0.10282907186592272     
   2.5200000000000000       ,  -0.36526988778290259       ,  -0.11996047637420280     
   2.5400000000000000       ,  -0.40911017693850682       ,  -0.13422697560399574     
   2.5600000000000001       ,  -0.45671942316044162       ,  -0.14568555110146794     
   2.5800000000000001       ,  -0.50756786513582763       ,  -0.15458698591341219     
   2.6000000000000001       ,  -0.56096265906713794       ,  -0.16137696776582999     
   2.6200000000000001       ,  -0.61608134167808282       ,  -0.16669088087711287     
   2.6400000000000001       ,  -0.67201177698604952       ,  -0.17134174693891063     
   2.6600000000000001       ,  -0.72779632160334295       ,  -0.17630099050523967     
   2.6800000000000002       ,  -0.78247775590654056       ,  -0.18267195748517076     
   2.7000000000000002       ,  -0.83514446256847852       ,  -0.19165639884909880     
   2.7200000000000002       ,  -0.88497239194846966       ,  -0.20451443421807752     
   2.7400000000000002       ,  -0.93126153225753006       ,  -0.22251881928418957     
   2.7600000000000002       ,  -0.97346489232535804       ,  -0.24690464347753657     
   2.7800000000000002       ,   -1.0112083921819026       ,  -0.27881586589843071     
   2.8000000000000003       ,   -1.0443005230856781       ,  -0.31925034431489102     
   2.8200000000000003       ,   -1.0727311620533906       ,  -0.36900521077101339     
   2.8399999999999999       ,   -1.0966594817519333       ,  -0.42862458621762495     
   2.8599999999999999       ,   -1.1163914587079575       ,  -0.49835169568672255     
   2.8799999999999999       ,   -1.1323480247689135       ,  -0.57808743750039904     
   2.8999999999999999       ,   -1.1450254030894971       ,  -0.66735737037658627     
   2.9199999999999999       ,   -1.1549495971145525       ,  -0.76528890985791498     
   2.9399999999999999       ,   -1.1626273386552941       ,  -0.87060027247466087     
   2.9600000000000000       ,   -1.1684960327682363       ,  -0.98160237816986129     
   2.9800000000000000       ,   -1.1728753510350369       ,   -1.0962145278572397     
   3.0000000000000000       ,   -1.1759231145547622       ,   -1.2119942257733687     
   3.0200000000000000       ,   -1.1775979726087320       ,   -1.3261810304844204     
   3.0400000000000000       ,   -1.1776311272707138       ,   -1.4357538111876151     
   3.0600000000000001       ,   -1.1755089883692220       ,   -1.5375002760654024     
   3.0800000000000001       ,   -1.1704681823243390       ,   -1.6280971465275618     
   3.1000000000000001       ,   -1.1615038019934625       ,   -1.7041988949237792     
   3.1200000000000001       ,   -1.1473911958027734       ,   -1.7625325627286044     
   3.1400000000000001       ,   -1.1267209786731753       ,   -1.7999958487862693     
   3.1600000000000001       ,   -1.0979463315513778       ,   -1.8137554181919817     
   3.1800000000000002       ,   -1.0594410679610133       ,   -1.8013422440752025     
   3.2000000000000002       ,   -1.0095664111968312       ,   -1.7607407657164136     
   3.2200000000000002       ,  -0.94674396882004785       ,   -1.6904687318823763     
   3.2400000000000002       ,  -0.86953203306124904       ,   -1.5896447985462627     
   3.2600000000000002       ,  -0.77670209361764941       ,   -1.4580412614097420     
   3.2800000000000002       ,  -0.66731233534074008       ,   -1.2961197176418411     
   3.3000000000000003       ,  -0.54077491426903623       ,   -1.1050479556296702     
   3.3200000000000003       ,  -0.39691396249008132       ,  -0.88669695017647099     
   3.3400000000000003       ,  -0.23601156075642876       ,  -0.64361747415015425     
   3.3599999999999999       ,   -5.8839327354352974E-002  ,  -0.37899650422060371     
   3.3799999999999999       ,   0.13332621305803455       ,   -9.6594274438554714E-002
   3.3999999999999999       ,   0.33870571614221123       ,   0.19933650743270606     
   3.4199999999999999       ,   0.55503713308936620       ,   0.50414714407305028     
   3.4399999999999999       ,   0.77961372972443865       ,   0.81290243727737799     
   3.4600000000000000       ,    1.0093391804577929       ,    1.1205000099850935     
   3.4800000000000000       ,    1.2407982256044137       ,    1.4217959179345376     
   3.5000000000000000       ,    1.4703407482345965       ,    1.7117327522851360     
   3.5200000000000000       ,    1.6941765706545828       ,    1.9854663081291917     
   3.5400000000000000       ,    1.9084778140753886       ,    2.2384869020988560     
   3.5600000000000001       ,    2.1094853272944896       ,    2.4667315665122134     
   3.5800000000000001       ,    2.2936154858044189       ,    2.6666836238905893     
   3.6000000000000001       ,    2.4575636007900590       ,    2.8354565454470890     
   3.6200000000000001       ,    2.5984002613466277       ,    2.9708595068439325     
   3.6400000000000001       ,    2.7136571603854724       ,    3.0714426564839141     
   3.6600000000000001       ,    2.8013993167068589       ,    3.1365207846118364     
   3.6800000000000002       ,    2.8602810887334731       ,    3.1661748015373137     
   3.7000000000000002       ,    2.8895839606091762       ,    3.1612311744495707     
   3.7200000000000002       ,    2.8892347458169239       ,    3.1232202077613396     
   3.7400000000000002       ,    2.8598035709775456       ,    3.0543147549890075     
   3.7600000000000002       ,    2.8024817447373409       ,    2.9572515952738332     
   3.7800000000000002       ,    2.7190403543302430       ,    2.8352382713139224     
   3.8000000000000003       ,    2.6117711364189486       ,    2.6918486472627414     
   3.8200000000000003       ,    2.4834118114920249       ,    2.5309107884240372     
   3.8400000000000003       ,    2.3370586272631488       ,    2.3563909771507801     
   3.8599999999999999       ,    2.1760693045805284       ,    2.1722777539835585     
   3.8799999999999999       ,    2.0039599021263577       ,    1.9824698076946718     
   3.8999999999999999       ,    1.8242993015970619       ,    1.7906713357796185     
   3.9199999999999999       ,    1.6406050566144768       ,    1.6002981664607616     
   3.9399999999999999       ,    1.4562442456620026       ,    1.4143974876731595     
   3.9600000000000000       ,    1.2743427270289127       ,    1.2355834853365992     
   3.9800000000000000       ,    1.0977058228245888       ,    1.0659905736556967     
   4.0000000000000000       ,   0.92875297545615876       ,   0.90724522820111864     
   4.0199999999999996       ,   0.76946834384721141       ,   0.76045673393916968     
   4.0400000000000000       ,   0.62136866199424223       ,   0.62622646187315401     
   4.0599999999999996       ,   0.48548899567346487       ,   0.50467461602335184     
   4.0800000000000001       ,   0.36238633216452515       ,   0.39548277236623719     
   4.0999999999999996       ,   0.25216025101337453       ,   0.29794998613549728     
   4.1199999999999992       ,   0.15448927853752079       ,   0.21105979352034690     
   4.1399999999999997       ,    6.8680950447406741E-002  ,   0.13355509438373056     
   4.1599999999999993       ,   -6.2668819116582916E-003  ,    6.4017685796713394E-002
   4.1799999999999997       ,   -7.1596347021674445E-002  ,    9.4912867889921011E-004
   4.1999999999999993       ,  -0.12871455451902308       ,   -5.7150326752523545E-002
   4.2199999999999998       ,  -0.17911653459812268       ,  -0.11170786025304756     
   4.2399999999999993       ,  -0.22430934165482602       ,  -0.16401205948794551     
   4.2599999999999998       ,  -0.26574041043670876       ,  -0.21515717534836953     
   4.2799999999999994       ,  -0.30473299089466332       ,  -0.26599958967298698     
   4.2999999999999998       ,  -0.34243111440214002       ,  -0.31712787880635379     
   4.3199999999999994       ,  -0.37975607621667845       ,  -0.36884725994587308     
   4.3399999999999999       ,  -0.41737587790779307       ,  -0.42117859043853928     
   4.3599999999999994       ,  -0.45568848267159140       ,  -0.47387147820477871     
   4.3799999999999999       ,  -0.49481912148632540       ,  -0.52643047894203054     
   4.3999999999999995       ,  -0.53463127512309316       ,  -0.57815282588945793     
   4.4199999999999999       ,  -0.57475037189468170       ,  -0.62817568153246450     
   4.4399999999999995       ,  -0.61459870800012728       ,  -0.67553053530260720     
   4.4600000000000000       ,  -0.65343963820850615       ,  -0.71920211080867613     
   4.4799999999999995       ,  -0.69042871784210225       ,  -0.75818899972633924     
   4.5000000000000000       ,  -0.72466921685804819       ,  -0.79156321173261024     
   4.5199999999999996       ,  -0.75526928288897122       ,  -0.81852592045078709     
   4.5400000000000000       ,  -0.78139800693800765       ,  -0.83845688908256866     
   4.5599999999999996       ,  -0.80233774238952182       ,  -0.85095536646390979     
   4.5800000000000001       ,  -0.81753023933864988       ,  -0.85587064075654662     
