r(A) ,   X_ray-calc  ,   X_ray_exp_renorm
   2.0000000000000000E-002  ,  -0.11062514300042456       ,   -1.4660869196095838     
   4.0000000000000001E-002  ,  -0.18674593540616138       ,   -1.5276354802087115     
   5.9999999999999998E-002  ,  -0.31103776539267780       ,   -1.6282595133207631     
   8.0000000000000002E-002  ,  -0.47973131695964322       ,   -1.7650924771318335     
  0.10000000000000001       ,  -0.68773575436698253       ,   -1.9342562905567948     
  0.12000000000000001       ,  -0.92881659272836770       ,   -2.1309905747452502     
  0.13999999999999999       ,   -1.1958128393464285       ,   -2.3498107286439973     
  0.16000000000000000       ,   -1.4808853571916598       ,   -2.5846891880923066     
  0.17999999999999999       ,   -1.7757872652330216       ,   -2.8292534073690616     
  0.19999999999999998       ,   -2.0721464044770470       ,   -3.0769935316310639     
  0.22000000000000000       ,   -2.3617494929255098       ,   -3.3214724188350622     
  0.23999999999999999       ,   -2.6368175817900905       ,   -3.5565306311570728     
  0.26000000000000001       ,   -2.8902628084664852       ,   -3.7764792489303831     
  0.28000000000000003       ,   -3.1159172029619238       ,   -3.9762738547518506     
  0.30000000000000004       ,   -3.3087254130778008       ,   -4.1516637718153504     
  0.32000000000000001       ,   -3.4648946256873985       ,   -4.2993115898077150     
  0.34000000000000002       ,   -3.5819966213080314       ,   -4.4168791370027822     
  0.36000000000000004       ,   -3.6590187418225231       ,   -4.5030773151966326     
  0.38000000000000000       ,   -3.6963625047808475       ,   -4.5576785567307878     
  0.40000000000000002       ,   -3.6957905863209932       ,   -4.5814920390335878     
  0.42000000000000004       ,   -3.6603248414609095       ,   -4.5763031499113396     
  0.44000000000000000       ,   -3.5940998603872587       ,   -4.5447799853416617     
  0.46000000000000002       ,   -3.5021782023542380       ,   -4.4903508328749719     
  0.48000000000000004       ,   -3.3903348424960149       ,   -4.4170576048781447     
  0.50000000000000000       ,   -3.2648194588662718       ,   -4.3293910001537359     
  0.52000000000000002       ,   -3.1321059370249715       ,   -4.2321137611494049     
  0.54000000000000004       ,   -2.9986388507365791       ,   -4.1300787371079917     
  0.56000000000000005       ,   -2.8705866776337565       ,   -4.0280485507322918     
  0.58000000000000007       ,   -2.7536111308074509       ,   -3.9305234967613885     
  0.59999999999999998       ,   -2.6526612487623704       ,   -3.8415838846034478     
  0.62000000000000000       ,   -2.5717998185972877       ,   -3.7647523925329374     
  0.64000000000000001       ,   -2.5140683548986122       ,   -3.7028811551849992     
  0.66000000000000003       ,   -2.4813952748306263       ,   -3.6580672938351038     
  0.68000000000000005       ,   -2.4745501620717310       ,   -3.6315994609136735     
  0.70000000000000007       ,   -2.4931451684818948       ,   -3.6239367514195662     
  0.72000000000000008       ,   -2.5356827358851608       ,   -3.6347200819937870     
  0.73999999999999999       ,   -2.5996470046957230       ,   -3.6628149017285674     
  0.76000000000000001       ,   -2.6816345823715713       ,   -3.7063829244801081     
  0.78000000000000003       ,   -2.7775188385983651       ,   -3.7629795046899042     
  0.80000000000000004       ,   -2.8826406335650434       ,   -3.8296723569927820     
  0.82000000000000006       ,   -2.9920174184480941       ,   -3.9031765775380216     
  0.84000000000000008       ,   -3.1005620090888657       ,   -3.9800003879310815     
  0.85999999999999999       ,   -3.2033020473553968       ,   -4.0565957086848234     
  0.88000000000000000       ,   -3.2955912382632802       ,   -4.1295075868315285     
  0.90000000000000002       ,   -3.3733038786919711       ,   -4.1955166515711362     
  0.92000000000000004       ,   -3.4330049555685518       ,   -4.2517691432183735     
  0.94000000000000006       ,   -3.4720891546744723       ,   -4.2958896364751773     
  0.96000000000000008       ,   -3.4888834410120788       ,   -4.3260723337330047     
  0.97999999999999998       ,   -3.4827093933312070       ,   -4.3411477056622889     
   1.0000000000000000       ,   -3.4539031367166517       ,   -4.3406222675102892     
   1.0200000000000000       ,   -3.4037924507310291       ,   -4.3246903593540802     
   1.0400000000000000       ,   -3.3346323667614381       ,   -4.2942179040551771     
   1.0600000000000001       ,   -3.2495022376067437       ,   -4.2506992045485568     
   1.0800000000000001       ,   -3.1521687988008726       ,   -4.1961888704662291     
   1.1000000000000001       ,   -3.0469210843104944       ,   -4.1332118940615530     
   1.1200000000000001       ,   -2.9383841568266815       ,   -4.0646556925797226     
   1.1400000000000001       ,   -2.8313194228141971       ,   -3.9936485700024513     
   1.1600000000000001       ,   -2.7304197944873474       ,   -3.9234295036793072     
   1.1799999999999999       ,   -2.6401081175465690       ,   -3.8572144164980871     
   1.2000000000000000       ,   -2.5643471009394156       ,   -3.7980641466709644     
   1.2200000000000000       ,   -2.5064684727723185       ,   -3.7487591767514172     
   1.2400000000000000       ,   -2.4690282675490440       ,   -3.7116858408401141     
   1.2600000000000000       ,   -2.4536940589855214       ,   -3.6887382111315490     
   1.2800000000000000       ,   -2.4611686351951723       ,   -3.6812391955699821     
   1.3000000000000000       ,   -2.4911531232218511       ,   -3.6898835864746999     
   1.3200000000000001       ,   -2.5423509683812293       ,   -3.7147049188293897     
   1.3400000000000001       ,   -2.6125125253530221       ,   -3.7550670625886680     
   1.3600000000000001       ,   -2.6985183885590214       ,   -3.8096805232435189     
   1.3800000000000001       ,   -2.7964980439556402       ,   -3.8766424962195254     
   1.4000000000000001       ,   -2.9019790240478223       ,   -3.9534988489997054     
   1.4200000000000002       ,   -3.0100605475630715       ,   -4.0373254226644777     
   1.4399999999999999       ,   -3.1156046713265502       ,   -4.1248253800341450     
   1.4600000000000000       ,   -3.2134373108195531       ,   -4.2124388036864797     
   1.4800000000000000       ,   -3.2985511225330169       ,   -4.2964603805924018     
   1.5000000000000000       ,   -3.3663021979758869       ,   -4.3731608111214877     
   1.5200000000000000       ,   -3.4125927956713289       ,   -4.4389075519747054     
   1.5400000000000000       ,   -3.4340329205754383       ,   -4.4902806416161534     
   1.5600000000000001       ,   -3.4280744249029782       ,   -4.5241796528682432     
   1.5800000000000001       ,   -3.3931124141778795       ,   -4.5379182544104903     
   1.6000000000000001       ,   -3.3285500518211202       ,   -4.5293034197274817     
   1.6200000000000001       ,   -3.2348243115595161       ,   -4.4966969731721873     
   1.6400000000000001       ,   -3.1133917708155820       ,   -4.4390578798140998     
   1.6600000000000001       ,   -2.9666751084356369       ,   -4.3559644384217862     
   1.6800000000000002       ,   -2.7979725045097497       ,   -4.2476162945890508     
   1.7000000000000000       ,   -2.6113335784430252       ,   -4.1148169237382843     
   1.7200000000000000       ,   -2.4114067879702894       ,   -3.9589379135940037     
   1.7400000000000000       ,   -2.2032642970687335       ,   -3.7818669778704974     
   1.7600000000000000       ,   -1.9922111637030830       ,   -3.5859421365265924     
   1.7800000000000000       ,   -1.7835862679570529       ,   -3.3738748869356581     
   1.8000000000000000       ,   -1.5825626773537427       ,   -3.1486654539039347     
   1.8200000000000001       ,   -1.3939551207913818       ,   -2.9135133394084320     
   1.8400000000000001       ,   -1.2220419192251788       ,   -2.6717263955817230     
   1.8600000000000001       ,   -1.0704081154110430       ,   -2.4266315226056383     
   1.8800000000000001       ,  -0.94181568304934460       ,   -2.1814898575219366     
   1.9000000000000001       ,  -0.83810561368193937       ,   -1.9394189856000053     
   1.9200000000000002       ,  -0.76013542211427054       ,   -1.7033242914379561     
   1.9399999999999999       ,  -0.70775422877425875       ,   -1.4758410936470003     
   1.9600000000000000       ,  -0.67981612541761083       ,   -1.2592886976097954     
   1.9800000000000000       ,  -0.67423106616850026       ,   -1.0556369787827147     
   2.0000000000000000       ,  -0.68805110606612141       ,  -0.86648559719252627     
   2.0200000000000000       ,  -0.71758848863321267       ,  -0.69305546351519975     
   2.0400000000000000       ,  -0.75856091247069690       ,  -0.53619164737105529     
   2.0600000000000001       ,  -0.80625832798619024       ,  -0.39637655500701396     
   2.0800000000000001       ,  -0.85572486442188744       ,  -0.27375191837423013     
   2.1000000000000001       ,  -0.90194899027207465       ,  -0.16814793857977425     
   2.1200000000000001       ,  -0.94005478256921238       ,   -7.9117817237703558E-002
   2.1400000000000001       ,  -0.96548722718121194       ,   -5.9758884271003867E-003
   2.1600000000000001       ,  -0.97418478719572077       ,    5.2162373339479540E-002
   2.1800000000000002       ,  -0.96273304324951203       ,    9.6340056430136364E-002
   2.2000000000000002       ,  -0.92849400227253809       ,   0.12771961419913136     
   2.2200000000000002       ,  -0.86970665511944756       ,   0.14754590577523158     
   2.2400000000000002       ,  -0.78555549761009635       ,   0.15711233633391780     
   2.2600000000000002       ,  -0.67620496709533728       ,   0.15773066429929714     
   2.2800000000000002       ,  -0.54279903809133356       ,   0.15070475246407733     
   2.3000000000000003       ,  -0.38742651489190988       ,   0.13730826870866311     
   2.3200000000000003       ,  -0.21305380635005114       ,   0.11876610437465557     
   2.3399999999999999       ,   -2.3428121042529122E-002  ,    9.6239086511760497E-002
   2.3599999999999999       ,   0.17704496269982481       ,    7.0811423275955993E-002
   2.3799999999999999       ,   0.38344475410492118       ,    4.3480245402511761E-002
   2.3999999999999999       ,   0.59049409506627970       ,    1.5146592943853183E-002
   2.4199999999999999       ,   0.79272753326919065       ,   -1.3392756322067680E-002
   2.4399999999999999       ,   0.98466297561383009       ,   -4.1453117487843243E-002
   2.4600000000000000       ,    1.1609708198150712       ,   -6.8469738669036287E-002
   2.4800000000000000       ,    1.3166348331587188       ,   -9.4005815215230507E-002
   2.5000000000000000       ,    1.4470995271457607       ,  -0.11776063393800928     
   2.5200000000000000       ,    1.5483994403981745       ,  -0.13957758713399560     
   2.5400000000000000       ,    1.6172665582385679       ,  -0.15945158784537941     
   2.5600000000000001       ,    1.6512130290055591       ,  -0.17753523257234669     
   2.5800000000000001       ,    1.6485873439748466       ,  -0.19414290974543885     
   2.6000000000000001       ,    1.6086031873480107       ,  -0.20975195405996644     
   2.6200000000000001       ,    1.5313411926395697       ,  -0.22499990811064979     
   2.6400000000000001       ,    1.4177248210523934       ,  -0.24067698036787405     
   2.6600000000000001       ,    1.2694724684724081       ,  -0.25771288558244460     
   2.6800000000000002       ,    1.0890286776798328       ,  -0.27715741956138518     
   2.7000000000000002       ,   0.87947795441769017       ,  -0.30015435040591448     
   2.7200000000000002       ,   0.64444514020472021       ,  -0.32790849446495907     
   2.7400000000000002       ,   0.38798656899162959       ,  -0.36164617569456664     
   2.7600000000000002       ,   0.11447632465075147       ,  -0.40256962711453803     
   2.7800000000000002       ,  -0.17150817449306377       ,  -0.45180626557490289     
   2.8000000000000003       ,  -0.46529729812184312       ,  -0.51035413748086156     
   2.8200000000000003       ,  -0.76223347898867477       ,  -0.57902517417232968     
   2.8399999999999999       ,   -1.0577656250753140       ,  -0.65838819223397627     
   2.8599999999999999       ,   -1.3475312906957868       ,  -0.74871380820198452     
   2.8799999999999999       ,   -1.6274249320720693       ,  -0.84992359307782639     
   2.8999999999999999       ,   -1.8936513088226357       ,  -0.96154585679682025     
   2.9199999999999999       ,   -2.1427638265405307       ,   -1.0826804169903661     
   2.9399999999999999       ,   -2.3716883139523310       ,   -1.2119745648793063     
   2.9600000000000000       ,   -2.5777333604161288       ,   -1.3476121933902994     
   2.9800000000000000       ,   -2.7585888790296043       ,   -1.4873177028368245     
   3.0000000000000000       ,   -2.9123149856934618       ,   -1.6283758567761311     
   3.0200000000000000       ,   -3.0373235793108777       ,   -1.7676682385199449     
   3.0400000000000000       ,   -3.1323551635708742       ,   -1.9017263749377389     
   3.0600000000000001       ,   -3.1964534638908741       ,   -2.0268009698290883     
   3.0800000000000001       ,   -3.2289402682539179       ,   -2.1389460481214364     
   3.1000000000000001       ,   -3.2293926684641381       ,   -2.2341161800753975     
   3.1200000000000001       ,   -3.1976245151813449       ,   -2.3082743578497324     
   3.1400000000000001       ,   -3.1336734473738987       ,   -2.3575075610810270     
   3.1600000000000001       ,   -3.0377943398495719       ,   -2.3781465979340100     
   3.1800000000000002       ,   -2.9104594592669013       ,   -2.3668864651422976     
   3.2000000000000002       ,   -2.7523650588258608       ,   -2.3209032530532978     
   3.2200000000000002       ,   -2.5644436039879093       ,   -2.2379635433224876     
   3.2400000000000002       ,   -2.3478803339911449       ,   -2.1165223162171229     
   3.2600000000000002       ,   -2.1041324518401834       ,   -1.9558056043725294     
   3.2800000000000002       ,   -1.8349489202651263       ,   -1.7558744972509097     
   3.3000000000000003       ,   -1.5423886394615067       ,   -1.5176676064693368     
   3.3200000000000003       ,   -1.2288347052986830       ,   -1.2430197318284386     
   3.3400000000000003       ,  -0.89700249913702956       ,  -0.93465520122862356     
   3.3599999999999999       ,  -0.54993954119188060       ,  -0.59615517003695506     
   3.3799999999999999       ,  -0.19101534111352386       ,  -0.23189902847172614     
   3.3999999999999999       ,   0.17610011112584156       ,   0.15301905186094647     
   3.4199999999999999       ,   0.54747007229762845       ,   0.55289653156478258     
   3.4399999999999999       ,   0.91893728415206621       ,   0.96154915265200647     
   3.4600000000000000       ,    1.2861824107751230       ,    1.3724543524507826     
   3.4800000000000000       ,    1.6447937458430320       ,    1.7789073317844653     
   3.5000000000000000       ,    1.9903466606335150       ,    2.1741851600651021     
   3.5200000000000000       ,    2.3184907097011411       ,    2.5517139468391661     
   3.5400000000000000       ,    2.6250418300749598       ,    2.9052339257056343     
   3.5600000000000001       ,    2.9060766856318536       ,    3.2289572918483334     
   3.5800000000000001       ,    3.1580259407954729       ,    3.5177138114664652     
   3.6000000000000001       ,    3.3777631117591969       ,    3.7670795760620246     
   3.6200000000000001       ,    3.5626856481875802       ,    3.9734847959693504     
   3.6400000000000001       ,    3.7107850468261128       ,    4.1342971983642478     
   3.6600000000000001       ,    3.8207030873353069       ,    4.2478783921007981     
   3.6800000000000002       ,    3.8917717004376637       ,    4.3136114569283057     
   3.7000000000000002       ,    3.9240345137538024       ,    4.3318989758247417     
   3.7200000000000002       ,    3.9182487509223818       ,    4.3041317214975674     
   3.7400000000000002       ,    3.8758668598063628       ,    4.2326291952914250     
   3.7600000000000002       ,    3.7989979875398410       ,    4.1205541625387765     
   3.7800000000000002       ,    3.6903501735119097       ,    3.9718041979248464     
   3.8000000000000003       ,    3.5531548649499594       ,    3.7908840155879062     
   3.8200000000000003       ,    3.3910760429018958       ,    3.5827629833320347     
   3.8400000000000003       ,    3.2081068503068471       ,    3.3527226854882151     
   3.8599999999999999       ,    3.0084571127353561       ,    3.1061996876381306     
   3.8799999999999999       ,    2.7964355147050450       ,    2.8486287583210821     
   3.8999999999999999       ,    2.5763304237837534       ,    2.5852917147852161     
   3.9199999999999999       ,    2.3522934303657324       ,    2.3211767858587433     
   3.9399999999999999       ,    2.1282295887442872       ,    2.0608529362242565     
   3.9600000000000000       ,    1.9076981071218304       ,    1.8083629905424634     
   3.9800000000000000       ,    1.6938268491593624       ,    1.5671386567031032     
   4.0000000000000000       ,    1.4892434923455240       ,    1.3399397037122707     
   4.0199999999999996       ,    1.2960255591374312       ,    1.1288186339766086     
   4.0400000000000000       ,    1.1156708204474990       ,   0.93511123724255052     
   4.0599999999999996       ,   0.94908879621677167       ,   0.75945246064269212     
   4.0800000000000001       ,   0.79661327558196726       ,   0.60181611243145261     
   4.0999999999999996       ,   0.65803498173516906       ,   0.46157607067320411     
   4.1199999999999992       ,   0.53265274604650992       ,   0.33758592400918136     
   4.1399999999999997       ,   0.41934086293023110       ,   0.22827335710127367     
   4.1599999999999993       ,   0.31662969907022814       ,   0.13174513058474732     
   4.1799999999999997       ,   0.22279615185541013       ,    4.5898210401576107E-002
   4.1999999999999993       ,   0.13596021117358281       ,   -3.1467516438886463E-002
   4.2199999999999998       ,    5.4183689355680187E-002  ,  -0.10253944102571314     
   4.2399999999999993       ,   -2.4432846894492558E-002  ,  -0.16938961176412856     
   4.2599999999999998       ,  -0.10165878076159583       ,  -0.23388315955869926     
   4.2799999999999994       ,  -0.17905134298353501       ,  -0.29760109066025336     
   4.2999999999999998       ,  -0.25788583841757579       ,  -0.36178010321154369     
   4.3199999999999994       ,  -0.33910079249428560       ,  -0.42727132456097816     
   4.3399999999999999       ,  -0.42325996416324035       ,  -0.49451904572142380     
   4.3599999999999994       ,  -0.51053245460774632       ,  -0.56355968064362938     
   4.3799999999999999       ,  -0.60069138053830562       ,  -0.63404033572789753     
   4.3999999999999995       ,  -0.69313080869551580       ,  -0.70525557306078257     
   4.4199999999999999       ,  -0.78689989605228305       ,  -0.77620022109421893     
   4.4399999999999995       ,  -0.88075247885117380       ,  -0.84563545748217417     
   4.4600000000000000       ,  -0.97320973152559576       ,  -0.91216488476577884     
   4.4799999999999995       ,   -1.0626329987695076       ,  -0.97431695942930996     
   4.5000000000000000       ,   -1.1473035111140208       ,   -1.0306299313624505     
   4.5199999999999996       ,   -1.2255054416160980       ,   -1.0797354102607868     
   4.5400000000000000       ,   -1.2956086580403761       ,   -1.1204367975589065     
   4.5599999999999996       ,   -1.3561475743316425       ,   -1.1517791000526860     
   4.5800000000000001       ,   -1.4058927039932345       ,   -1.1731070610683185     
