r(A) ,   X_ray-calc  ,   X_ray_exp_renorm
   2.0000000000000000E-002  ,   -1.6840779465895073       ,   -2.0611531374079863     
   4.0000000000000001E-002  ,   -1.7231636781591644       ,   -2.0833632844821093     
   5.9999999999999998E-002  ,   -1.7868756832807304       ,   -2.1195977364580876     
   8.0000000000000002E-002  ,   -1.8731231235941066       ,   -2.1687124164323670     
  0.10000000000000001       ,   -1.9790875908245507       ,   -2.2291636866173312     
  0.12000000000000001       ,   -2.1013268263243963       ,   -2.2990637673341121     
  0.13999999999999999       ,   -2.2359010896604992       ,   -2.3762483191691142     
  0.16000000000000000       ,   -2.3785173185436781       ,   -2.4583536334241409     
  0.17999999999999999       ,   -2.5246855474929997       ,   -2.5429005187458613     
  0.19999999999999998       ,   -2.6698815949205419       ,   -2.6273817276479283     
  0.22000000000000000       ,   -2.8097098054791680       ,   -2.7093496448023298     
  0.23999999999999999       ,   -2.9400596548774875       ,   -2.7865009639024816     
  0.26000000000000001       ,   -3.0572502866112914       ,   -2.8567552110277443     
  0.28000000000000003       ,   -3.1581575432892293       ,   -2.9183242242296430     
  0.30000000000000004       ,   -3.2403187593994187       ,   -2.9697700612567952     
  0.32000000000000001       ,   -3.3020114691141185       ,   -3.0100492653626105     
  0.34000000000000002       ,   -3.3423032165251989       ,   -3.0385419547034878     
  0.36000000000000004       ,   -3.3610707952692853       ,   -3.0550647926660526     
  0.38000000000000000       ,   -3.3589884444805804       ,   -3.0598675211566038     
  0.40000000000000002       ,   -3.3374857407819469       ,   -3.0536133718606133     
  0.42000000000000004       ,   -3.2986771036149864       ,   -3.0373442869394096     
  0.44000000000000000       ,   -3.2452659272008986       ,   -3.0124324565578546     
  0.46000000000000002       ,   -3.1804273238059784       ,   -2.9805201937426919     
  0.48000000000000004       ,   -3.1076742718616757       ,   -2.9434505976716130     
  0.50000000000000000       ,   -3.0307125775725114       ,   -2.9031917882753002     
  0.52000000000000002       ,   -2.9532904564854050       ,   -2.8617577156879395     
  0.54000000000000004       ,   -2.8790487073859743       ,   -2.8211286497621924     
  0.56000000000000005       ,   -2.8113773794257311       ,   -2.7831744344807743     
  0.58000000000000007       ,   -2.7532845286458518       ,   -2.7495834513997566     
  0.59999999999999998       ,   -2.7072821354024197       ,   -2.7217999817443372     
  0.62000000000000000       ,   -2.6752935316770263       ,   -2.7009722993886718     
  0.64000000000000001       ,   -2.6585857967251840       ,   -2.6879133816198202     
  0.66000000000000003       ,   -2.6577295573796968       ,   -2.6830756095951047     
  0.68000000000000005       ,   -2.6725875170657938       ,   -2.6865402666495561     
  0.70000000000000007       ,   -2.7023318800652936       ,   -2.6980220527381440     
  0.72000000000000008       ,   -2.7454896812245555       ,   -2.7168882407880122     
  0.73999999999999999       ,   -2.8000139222818450       ,   -2.7421915289632368     
  0.76000000000000001       ,   -2.8633773982914357       ,   -2.7727151141424264     
  0.78000000000000003       ,   -2.9326852113511297       ,   -2.8070280466952950     
  0.80000000000000004       ,   -3.0048012486156357       ,   -2.8435485426178873     
  0.82000000000000006       ,   -3.0764833751787668       ,   -2.8806126405507921     
  0.84000000000000008       ,   -3.1445217796887999       ,   -2.9165454085322176     
  0.85999999999999999       ,   -3.2058748227060661       ,   -2.9497318345904908     
  0.88000000000000000       ,   -3.2577968769303127       ,   -2.9786845780181519     
  0.90000000000000002       ,   -3.2979530075195704       ,   -3.0021059114316193     
  0.92000000000000004       ,   -3.3245159040239964       ,   -3.0189414401967478     
  0.94000000000000006       ,   -3.3362412191139774       ,   -3.0284235341727430     
  0.96000000000000008       ,   -3.3325183623555987       ,   -3.0301028321664285     
  0.97999999999999998       ,   -3.3133948030554397       ,   -3.0238666642915133     
   1.0000000000000000       ,   -3.2795730136534882       ,   -3.0099437617611318     
   1.0200000000000000       ,   -3.2323802906772316       ,   -2.9888951663602898     
   1.0400000000000000       ,   -3.1737127794392426       ,   -2.9615917913563905     
   1.0600000000000001       ,   -3.1059560579740788       ,   -2.9291796007431983     
   1.0800000000000001       ,   -3.0318855643838130       ,   -2.8930338445724870     
   1.1000000000000001       ,   -2.9545509433253176       ,   -2.8547041968506499     
   1.1200000000000001       ,   -2.8771490111177997       ,   -2.8158529739377900     
   1.1400000000000001       ,   -2.8028904711152727       ,   -2.7781888537547452     
   1.1600000000000001       ,   -2.7348657356720456       ,   -2.7433986612705268     
   1.1799999999999999       ,   -2.6759152207609085       ,   -2.7130798295871417     
   1.2000000000000000       ,   -2.6285092752886241       ,   -2.6886760884302081     
   1.2200000000000000       ,   -2.5946424991528514       ,   -2.6714187769797304     
   1.2400000000000000       ,   -2.5757466099554120       ,   -2.6622759335191022     
   1.2600000000000000       ,   -2.5726252631979842       ,   -2.6619109915337202     
   1.2800000000000000       ,   -2.5854133461469742       ,   -2.6706525247466413     
   1.3000000000000000       ,   -2.6135622876889908       ,   -2.6884760485052297     
   1.3200000000000001       ,   -2.6558518951571934       ,   -2.7149984198698331     
   1.3400000000000001       ,   -2.7104281858157018       ,   -2.7494849024588741     
   1.3600000000000001       ,   -2.7748656670759422       ,   -2.7908684933700436     
   1.3800000000000001       ,   -2.8462515756253643       ,   -2.8377806663969203     
   1.4000000000000001       ,   -2.9212887483427954       ,   -2.8885922849292580     
   1.4200000000000002       ,   -2.9964130993818108       ,   -2.9414630939105333     
   1.4399999999999999       ,   -3.0679211444625669       ,   -2.9943979249498121     
   1.4600000000000000       ,   -3.1321026646673649       ,   -3.0453075510126095     
   1.4800000000000000       ,   -3.1853734497242585       ,   -3.0920720125729555     
   1.5000000000000000       ,   -3.2244031087158493       ,   -3.1326042077351235     
   1.5200000000000000       ,   -3.2462331801260969       ,   -3.1649115931880840     
   1.5400000000000000       ,   -3.2483812010788302       ,   -3.1871539761696246     
   1.5600000000000001       ,   -3.2289269882306217       ,   -3.1976955820757702     
   1.5800000000000001       ,   -3.1865781143863603       ,   -3.1951498475088047     
   1.6000000000000001       ,   -3.1207124045729433       ,   -3.1784157018394938     
   1.6200000000000001       ,   -3.0313961881556706       ,   -3.1467044476548098     
   1.6400000000000001       ,   -2.9193779922484993       ,   -3.0995567167560858     
   1.6600000000000001       ,   -2.7860583078547805       ,   -3.0368493484093029     
   1.6800000000000002       ,   -2.6334369662087749       ,   -2.9587923954793611     
   1.7000000000000000       ,   -2.4640404931593509       ,   -2.8659167980863995     
   1.7200000000000000       ,   -2.2808325322012037       ,   -2.7590535612640084     
   1.7400000000000000       ,   -2.0871110148013612       ,   -2.6393055225969686     
   1.7600000000000000       ,   -1.8863961887400298       ,   -2.5080129902099273     
   1.7800000000000000       ,   -1.6823138766862871       ,   -2.3667146656869198     
   1.8000000000000000       ,   -1.4784784207211170       ,   -2.2171053382454233     
   1.8200000000000001       ,   -1.2783796739184696       ,   -2.0609918462905434     
   1.8400000000000001       ,   -1.0852781345707463       ,   -1.9002487535309245     
   1.8600000000000001       ,  -0.90211189622195520       ,   -1.7367750847765697     
   1.8800000000000001       ,  -0.73141852754602010       ,   -1.5724533190708461     
   1.9000000000000001       ,  -0.57527432572162363       ,   -1.4091116542994759     
   1.9200000000000002       ,  -0.43525263486757054       ,   -1.2484903483875607     
   1.9399999999999999       ,  -0.31240211969937731       ,   -1.0922127187852895     
   1.9600000000000000       ,  -0.20724506767792300       ,  -0.94176115536893512     
   1.9800000000000000       ,  -0.11979499438577992       ,  -0.79845828289863019     
   2.0000000000000000       ,   -4.9592079134355434E-002  ,  -0.66345320756687665     
   2.0200000000000000       ,    4.2457094033591710E-003  ,  -0.53771260632786122     
   2.0400000000000000       ,    4.2958498625246679E-002  ,  -0.42201627423681065     
   2.0600000000000001       ,    6.8070543293119512E-002  ,  -0.31695663854231776     
   2.0800000000000001       ,    8.1309828882221741E-002  ,  -0.22294168116172486     
   2.1000000000000001       ,    8.4524813432906770E-002  ,  -0.14020068359159310     
   2.1200000000000001       ,    7.9601861150216766E-002  ,   -6.8792218251238380E-002
   2.1400000000000001       ,    6.8386758583540333E-002  ,   -8.6138537147384137E-003
   2.1600000000000001       ,    5.2613403076577678E-002  ,    4.0586887484393513E-002
   2.1800000000000002       ,    3.3842329491973279E-002  ,    7.9200687905731398E-002
   2.2000000000000002       ,    1.3411216086904383E-002  ,   0.10774397606587802     
   2.2200000000000002       ,   -7.6010911194124130E-003  ,   0.12684600555822276     
   2.2400000000000002       ,   -2.8396146253813429E-002  ,   0.13723552488729687     
   2.2600000000000002       ,   -4.8462843832782924E-002  ,   0.13972699909385569     
   2.2800000000000002       ,   -6.7570170221155162E-002  ,   0.13520627261215501     
   2.3000000000000003       ,   -8.5746824896901011E-002  ,   0.12461551672074024     
   2.3200000000000003       ,  -0.10324932432381058       ,   0.10893728855674782     
   2.3399999999999999       ,  -0.12052066690903940       ,    8.9177544177821144E-002
   2.3599999999999999       ,  -0.13814199593622953       ,    6.6347495726001765E-002
   2.3799999999999999       ,  -0.15677993485561229       ,    4.1444280424899525E-002
   2.3999999999999999       ,  -0.17713237780945204       ,    1.5430512943203262E-002
   2.4199999999999999       ,  -0.19987549556929438       ,   -1.0787083243229217E-002
   2.4399999999999999       ,  -0.22561456684161721       ,   -3.6379632858086250E-002
   2.4600000000000000       ,  -0.25484097648655518       ,   -6.0618180258811334E-002
   2.4800000000000000       ,  -0.28789735007906253       ,   -8.2895265090555739E-002
   2.5000000000000000       ,  -0.32495233737077162       ,  -0.10274527034740785     
   2.5200000000000000       ,  -0.36598603809681757       ,  -0.11986271345658130     
   2.5400000000000000       ,  -0.41078650725372223       ,  -0.13411758606874893     
   2.5600000000000001       ,  -0.45895720987391236       ,  -0.14556682329243065     
   2.5800000000000001       ,  -0.50993474405117389       ,  -0.15446100379641836     
   2.6000000000000001       ,  -0.56301564113983404       ,  -0.16124545208931262     
   2.6200000000000001       ,  -0.61739060712885196       ,  -0.16655503457716478     
   2.6400000000000001       ,  -0.67218420947593593       ,  -0.17120211037195618     
   2.6600000000000001       ,  -0.72649775540754180       ,  -0.17615731235613338     
   2.6800000000000002       ,  -0.77945296231473105       ,  -0.18252308725664920     
   2.7000000000000002       ,  -0.83023399461383485       ,  -0.19150020666565104     
   2.7200000000000002       ,  -0.87812553500075241       ,  -0.20434776325786472     
   2.7400000000000002       ,  -0.92254476660071727       ,  -0.22233747548116017     
   2.7600000000000002       ,  -0.96306545601646287       ,  -0.24670342621790045     
   2.7800000000000002       ,  -0.99943273081566386       ,  -0.27858864228817787     
   2.8000000000000003       ,   -1.0315676195558725       ,  -0.31899016824644544     
   2.8200000000000003       ,   -1.0595609457413344       ,  -0.36870448650654830     
   2.8399999999999999       ,   -1.0836567146019034       ,  -0.42827527458283088     
   2.8599999999999999       ,   -1.1042256775852877       ,  -0.49794555928876444     
   2.8799999999999999       ,   -1.1217302782623533       ,  -0.57761631971028549     
   2.8999999999999999       ,   -1.1366826504140486       ,  -0.66681350121570759     
   2.9199999999999999       ,   -1.1495977320998105       ,  -0.76466523046856594     
   2.9399999999999999       ,   -1.1609438594563346       ,  -0.86989076860062076     
   2.9600000000000000       ,   -1.1710933959085164       ,  -0.98080241208657615     
   2.9800000000000000       ,   -1.1802760262479559       ,   -1.0953211575254305     
   3.0000000000000000       ,   -1.1885372957644209       ,   -1.2110064996886336     
   3.0200000000000000       ,   -1.1957048029172201       ,   -1.3251002467900475     
   3.0400000000000000       ,   -1.2013641660183889       ,   -1.4345837301258324     
   3.0600000000000001       ,   -1.2048464914356949       ,   -1.5362472757658441     
   3.0800000000000001       ,   -1.2052285890612600       ,   -1.6267703134569822     
   3.1000000000000001       ,   -1.2013466304834413       ,   -1.7028100420181322     
   3.1200000000000001       ,   -1.1918233499354005       ,   -1.7610961702521544     
   3.1400000000000001       ,   -1.1751082733964364       ,   -1.7985289252527628     
   3.1600000000000001       ,   -1.1495298540385608       ,   -1.8122772811680743     
   3.1800000000000002       ,   -1.1133578193545608       ,   -1.7998742232842018     
   3.2000000000000002       ,   -1.0648735223906698       ,   -1.7593058334817782     
   3.2200000000000002       ,   -1.0024456598405658       ,   -1.6890910685021374     
   3.2400000000000002       ,  -0.92460839330731526       ,   -1.5883493025780493     
   3.2600000000000002       ,  -0.83013870256110001       ,   -1.4568530169809408     
   3.2800000000000002       ,  -0.71812972194688618       ,   -1.2950634326968884     
   3.3000000000000003       ,  -0.58805686864407603       ,   -1.1041473864128803     
   3.3200000000000003       ,  -0.43983376397877499       ,  -0.88597432816365951     
   3.3400000000000003       ,  -0.27385527045369684       ,  -0.64309295204081529     
   3.3599999999999999       ,   -9.1025406105825268E-002  ,  -0.37868763745764272     
   3.3799999999999999       ,   0.10723156230789491       ,   -9.6515554026798525E-002
   3.3999999999999999       ,   0.31897792588357587       ,   0.19917405627258966     
   3.4199999999999999       ,   0.54178764301096516       ,   0.50373628461996345     
   3.4399999999999999       ,   0.77278945073490679       ,   0.81223995479638178     
   3.4600000000000000       ,    1.0087269728639079       ,    1.1195868479713869     
   3.4800000000000000       ,    1.2460341438977998       ,    1.4206372119890389     
   3.5000000000000000       ,    1.4809236482605039       ,    1.7103377595916285     
   3.5200000000000000       ,    1.7094855364950281       ,    1.9838482337017742     
   3.5400000000000000       ,    1.9277927464216766       ,    2.2366626261604705     
   3.5600000000000001       ,    2.1320099460777735       ,    2.4647212804394987     
   3.5800000000000001       ,    2.3185019399643689       ,    2.6645103850095446     
   3.6000000000000001       ,    2.4839378486850117       ,    2.8331457634874773     
   3.6200000000000001       ,    2.6253873866403503       ,    2.9684383769684004     
   3.6400000000000001       ,    2.7404058193050123       ,    3.0689395554252927     
   3.6600000000000001       ,    2.8271045712671778       ,    3.1339646475210863     
   3.6800000000000002       ,    2.8842049637815239       ,    3.1635944976267787     
   3.7000000000000002       ,    2.9110731664205134       ,    3.1586548993943917     
   3.7200000000000002       ,    2.9077351278744530       ,    3.1206749101006941     
   3.7400000000000002       ,    2.8748709793969125       ,    3.0518256124746790     
   3.7600000000000002       ,    2.8137891522396181       ,    2.9548415552937235     
   3.7800000000000002       ,    2.7263811883230593       ,    2.8329276672388670     
   3.8000000000000003       ,    2.6150589224307055       ,    2.6896548999093963     
   3.8200000000000003       ,    2.4826763470846238       ,    2.5288481988912626     
   3.8400000000000003       ,    2.3324390133612667       ,    2.3544706141783567     
   3.8599999999999999       ,    2.1678042513454447       ,    2.1705074358126697     
   3.8799999999999999       ,    1.9923757963508164       ,    1.9808541752934450     
   3.8999999999999999       ,    1.8097965703019778       ,    1.7892120113456196     
   3.9199999999999999       ,    1.6236433862489539       ,    1.5989939884302449     
   3.9399999999999999       ,    1.4373272181705830       ,    1.4132448111479337     
   3.9600000000000000       ,    1.2540024141077066       ,    1.2345765349630891     
   3.9800000000000000       ,    1.0764878398508806       ,    1.0651218346194116     
   4.0000000000000000       ,   0.90720243950014723       ,   0.90650586017601631     
   4.0199999999999996       ,   0.74811710912800466       ,   0.75983699257699888     
   4.0400000000000000       ,   0.60072412484759630       ,   0.62571611273271255     
   4.0599999999999996       ,   0.46602467355919791       ,   0.50426332670204199     
   4.0800000000000001       ,   0.34453433156224361       ,   0.39516046996411130     
   4.0999999999999996       ,   0.23630565126327455       ,   0.29770716899413291     
   4.1199999999999992       ,   0.14096637655605129       ,   0.21088778835805680     
   4.1399999999999997       ,    5.7771238157319910E-002  ,   0.13344625240439861     
   4.1599999999999993       ,   -1.4335196819835251E-002  ,    6.3965513982028849E-002
   4.1799999999999997       ,   -7.6647513552540944E-002  ,    9.4835517756233659E-004
   4.1999999999999993       ,  -0.13062341228309735       ,   -5.7103751556632186E-002
   4.2199999999999998       ,  -0.17780589287162840       ,  -0.11161682288249287     
   4.2399999999999993       ,  -0.21974688667176343       ,  -0.16387839631866433     
   4.2599999999999998       ,  -0.25793540813238491       ,  -0.21498183098625109     
   4.2799999999999994       ,  -0.29373302275492785       ,  -0.26578281080749272     
   4.2999999999999998       ,  -0.32831904296093606       ,  -0.31686943246112159     
   4.3199999999999994       ,  -0.36264738673595492       ,  -0.36854666440491740     
   4.3399999999999999       ,  -0.39741648688038533       ,  -0.42083534698798358     
   4.3599999999999994       ,  -0.43305304523696231       ,  -0.47348529219012497     
   4.3799999999999999       ,  -0.46970981192942490       ,  -0.52600145947577137     
   4.3999999999999995       ,  -0.50727696053270999       ,  -0.57768165481046219     
   4.4199999999999999       ,  -0.54540605174154155       ,  -0.62766374385714274     
   4.4399999999999995       ,  -0.58354505443057403       ,  -0.67498000534415992     
   4.4600000000000000       ,  -0.62098244531522029       ,  -0.71861599028934053     
   4.4799999999999995       ,  -0.65689805455813555       ,  -0.75757110647547743     
   4.5000000000000000       ,  -0.69041807825811141       ,  -0.79091811985401983     
   4.5199999999999996       ,  -0.72067154871403594       ,  -0.81785885505932854     
   4.5400000000000000       ,  -0.74684554353127974       ,  -0.83777358076091057     
   4.5599999999999996       ,  -0.76823652371865392       ,  -0.85026187239064777     
   4.5800000000000001       ,  -0.78429541254274626       ,  -0.85517314093430563     
