r(A) ,   X_ray-calc  ,   X_ray_exp_renorm
   2.0000000000000000E-002  ,   0.34290492698553265       ,   -1.6339823984788620     
   4.0000000000000001E-002  ,   0.25746204842982201       ,   -1.6876543770249643     
   5.9999999999999998E-002  ,   0.11788463319120734       ,   -1.7754142420150050     
   8.0000000000000002E-002  ,   -7.1688616307527098E-002  ,   -1.8947809035038155     
  0.10000000000000001       ,  -0.30566439568095077       ,   -2.0423967902625795     
  0.12000000000000001       ,  -0.57718681246728198       ,   -2.2141388386010319     
  0.13999999999999999       ,  -0.87837197408349099       ,   -2.4052543047167663     
  0.16000000000000000       ,   -1.2005765792518035       ,   -2.6105165878385983     
  0.17999999999999999       ,   -1.5346907231088369       ,   -2.8243955574459179     
  0.19999999999999998       ,   -1.8714442763554318       ,   -3.0412363866117862     
  0.22000000000000000       ,   -2.2017157496181619       ,   -3.2554406225949362     
  0.23999999999999999       ,   -2.5168325215835434       ,   -3.4616431844418907     
  0.26000000000000001       ,   -2.8088516933714858       ,   -3.6548791661556197     
  0.28000000000000003       ,   -3.0708116160045864       ,   -3.8307347349093894     
  0.30000000000000004       ,   -3.2969452913887225       ,   -3.9854770304916189     
  0.32000000000000001       ,   -3.4828483245739355       ,   -4.1161587706664298     
  0.34000000000000002       ,   -3.6255958485867108       ,   -4.2206942167238584     
  0.36000000000000004       ,   -3.7238047851949996       ,   -4.2979042179505829     
  0.38000000000000000       ,   -3.7776398706171053       ,   -4.3475291927520026     
  0.40000000000000002       ,   -3.7887639850292012       ,   -4.3702100748068604     
  0.42000000000000004       ,   -3.7602353980414662       ,   -4.3674384111385027     
  0.44000000000000000       ,   -3.6963565001761562       ,   -4.3414779022962300     
  0.46000000000000002       ,   -3.6024803587159986       ,   -4.2952606823051420     
  0.48000000000000004       ,   -3.4847829487165245       ,   -4.2322625109304406     
  0.50000000000000000       ,   -3.3500101103455950       ,   -4.1563617616762230     
  0.52000000000000002       ,   -3.2052091282478847       ,   -4.0716876108140267     
  0.54000000000000004       ,   -3.0574552875530792       ,   -3.9824631479841952     
  0.56000000000000005       ,   -2.9135838197684056       ,   -3.8928492278755633     
  0.58000000000000007       ,   -2.7799373110121022       ,   -3.8067947637811272     
  0.59999999999999998       ,   -2.6621379212097800       ,   -3.7278988343193666     
  0.62000000000000000       ,   -2.5648926870864406       ,   -3.6592894490932362     
  0.64000000000000001       ,   -2.4918387985801278       ,   -3.6035231196041364     
  0.66000000000000003       ,   -2.4454341038473593       ,   -3.5625085367872411     
  0.68000000000000005       ,   -2.4268962778606085       ,   -3.5374566997458987     
  0.70000000000000007       ,   -2.4361921560019479       ,   -3.5288588091729660     
  0.72000000000000008       ,   -2.4720767632106249       ,   -3.5364921734874857     
  0.73999999999999999       ,   -2.5321796382048745       ,   -3.5594533166621045     
  0.76000000000000001       ,   -2.6131342359933165       ,   -3.5962164641089287     
  0.78000000000000003       ,   -2.7107445601879983       ,   -3.6447146546102465     
  0.80000000000000004       ,   -2.8201817916397856       ,   -3.7024399162154396     
  0.82000000000000006       ,   -2.9362025936060485       ,   -3.7665582814126948     
  0.84000000000000008       ,   -3.0533800258882486       ,   -3.8340349248448988     
  0.85999999999999999       ,   -3.1663376174083240       ,   -3.9017644016575637     
  0.88000000000000000       ,   -3.2699771402616173       ,   -3.9667008551611516     
  0.90000000000000002       ,   -3.3596909952356437       ,   -4.0259831501476118     
  0.92000000000000004       ,   -3.4315508413018319       ,   -4.0770501666453063     
  0.94000000000000006       ,   -3.4824651479994326       ,   -4.1177419446168280     
  0.96000000000000008       ,   -3.5102996757563427       ,   -4.1463829829891417     
  0.97999999999999998       ,   -3.5139564401717878       ,   -4.1618447406001664     
   1.0000000000000000       ,   -3.4934084288235829       ,   -4.1635852316470743     
   1.0200000000000000       ,   -3.4496891440828019       ,   -4.1516645201111997     
   1.0400000000000000       ,   -3.3848378704397359       ,   -4.1267358604574014     
   1.0600000000000001       ,   -3.3018033374586664       ,   -4.0900131690820203     
   1.0800000000000001       ,   -3.2043100998153133       ,   -4.0432164067426255     
   1.1000000000000001       ,   -3.0966934194433304       ,   -3.9884972729563395     
   1.1200000000000001       ,   -2.9837096550329831       ,   -3.9283483289611181     
   1.1400000000000001       ,   -2.8703300944666412       ,   -3.8654992507215802     
   1.1600000000000001       ,   -2.7615267715701295       ,   -3.8028043475320170     
   1.1799999999999999       ,   -2.6620590682587277       ,   -3.7431257510996616     
   1.2000000000000000       ,   -2.5762698091048284       ,   -3.6892167772547841     
   1.2200000000000000       ,   -2.5078991139769848       ,   -3.6436098870802978     
   1.2400000000000000       ,   -2.4599235058591269       ,   -3.6085134323972596     
   1.2600000000000000       ,   -2.4344267082387319       ,   -3.5857209746067671     
   1.2800000000000000       ,   -2.4325072539720161       ,   -3.5765364340039532     
   1.3000000000000000       ,   -2.4542265192901818       ,   -3.5817176818561727     
   1.3200000000000001       ,   -2.4985991539735841       ,   -3.6014404566864342     
   1.3400000000000001       ,   -2.5636261679426764       ,   -3.6352836989873967     
   1.3600000000000001       ,   -2.6463692240687000       ,   -3.6822365862288056     
   1.3800000000000001       ,   -2.7430630448543267       ,   -3.7407267440119067     
   1.4000000000000001       ,   -2.8492613315321837       ,   -3.8086683401244925     
   1.4200000000000002       ,   -2.9600102770887471       ,   -3.8835280644851955     
   1.4399999999999999       ,   -3.0700426807110985       ,   -3.9624063847656705     
   1.4600000000000000       ,   -3.1739848811374296       ,   -4.0421309659636080     
   1.4800000000000000       ,   -3.2665682497837851       ,   -4.1193587686331750     
   1.5000000000000000       ,   -3.3428368381024312       ,   -4.1906831057615950     
   1.5200000000000000       ,   -3.3983429609873079       ,   -4.2527418476324126     
   1.5400000000000000       ,   -3.4293230095299436       ,   -4.3023230169291402     
   1.5600000000000001       ,   -3.4328465996397899       ,   -4.3364642067264825     
   1.5800000000000001       ,   -3.4069332438080604       ,   -4.3525425706338989     
   1.6000000000000001       ,   -3.3506320371276401       ,   -4.3483525613418488     
   1.6200000000000001       ,   -3.2640613226184434       ,   -4.3221691114872387     
   1.6400000000000001       ,   -3.1484068856759793       ,   -4.2727945364650308     
   1.6600000000000001       ,   -3.0058788598703470       ,   -4.1995880679817459     
   1.6800000000000002       ,   -2.8396291418027717       ,   -4.1024775742714592     
   1.7000000000000000       ,   -2.6536326478866368       ,   -3.9819536626175531     
   1.7200000000000000       ,   -2.4525371410454824       ,   -3.8390469679397961     
   1.7400000000000000       ,   -2.2414875567026069       ,   -3.6752899856135390     
   1.7600000000000000       ,   -2.0259317194392534       ,   -3.4926652882072831     
   1.7800000000000000       ,   -1.8114150284871160       ,   -3.2935423588912913     
   1.8000000000000000       ,   -1.6033720770917406       ,   -3.0806055674398864     
   1.8200000000000001       ,   -1.4069232450312388       ,   -2.8567760010325136     
   1.8400000000000001       ,   -1.2266840648861879       ,   -2.6251299390438687     
   1.8600000000000001       ,   -1.0665946229980301       ,   -2.3888167308101225     
   1.8800000000000001       ,  -0.92977543908643923       ,   -2.1509787043352921     
   1.9000000000000001       ,  -0.81841520852108507       ,   -1.9146755122693080     
   1.9200000000000002       ,  -0.73369453174720722       ,   -1.6828150227153713     
   1.9399999999999999       ,  -0.67574834720526622       ,   -1.4580925025437517     
   1.9600000000000000       ,  -0.64366828341698312       ,   -1.2429394377181104     
   1.9800000000000000       ,  -0.63554461191055522       ,   -1.0394829074388396     
   2.0000000000000000       ,  -0.64854597516566925       ,  -0.84951599553510981     
   2.0200000000000000       ,  -0.67903364091116114       ,  -0.67447930162448799     
   2.0400000000000000       ,  -0.72270575007062254       ,  -0.51545322274582106     
   2.0600000000000001       ,  -0.77476592853336712       ,  -0.37316032793512460     
   2.0800000000000001       ,  -0.83010976296201699       ,  -0.24797685531534244     
   2.1000000000000001       ,  -0.88352202890264375       ,  -0.13995213234234100     
   2.1200000000000001       ,  -0.92987722594716649       ,   -4.8834560140934520E-002
   2.1400000000000001       ,  -0.96433592888955011       ,    2.5897285850229195E-002
   2.1600000000000001       ,  -0.98252970365021775       ,    8.4999906057835264E-002
   2.1800000000000002       ,  -0.98072784903606647       ,   0.12942789970710566     
   2.2000000000000002       ,  -0.95597998653806227       ,   0.16029608029864759     
   2.2200000000000002       ,  -0.90622949736374259       ,   0.17884185427741581     
   2.2400000000000002       ,  -0.83039395785371528       ,   0.18638884907115191     
   2.2600000000000002       ,  -0.72841000423979030       ,   0.18431256962889828     
   2.2800000000000002       ,  -0.60124141402733744       ,   0.17400864612052946     
   2.3000000000000003       ,  -0.45085057063611927       ,   0.15686402243274086     
   2.3200000000000003       ,  -0.28013482682231622       ,   0.13423123744339641     
   2.3399999999999999       ,   -9.2830549452879510E-002  ,   0.10740577917408788     
   2.3599999999999999       ,   0.10661123385102531       ,    7.7606354181652681E-002
   2.3799999999999999       ,   0.31317269819109628       ,    4.5957816911085046E-002
   2.3999999999999999       ,   0.52143494383245725       ,    1.3476449481520261E-002
   2.4199999999999999       ,   0.72575539287980984       ,   -1.8942727982222921E-002
   2.4399999999999999       ,   0.92045038718092009       ,   -5.0536905080281358E-002
   2.4600000000000000       ,    1.0999764772096974       ,   -8.0684907451234550E-002
   2.4800000000000000       ,    1.2591041012254252       ,  -0.10891522440420885     
   2.5000000000000000       ,    1.3930777964293499       ,  -0.13491264208431686     
   2.5200000000000000       ,    1.4977577363394581       ,  -0.15852335742759904     
   2.5400000000000000       ,    1.5697382205588619       ,  -0.17975831981271659     
   2.5600000000000001       ,    1.6064397174779588       ,  -0.19879443074626285     
   2.5800000000000001       ,    1.6061721353734670       ,  -0.21597313778118063     
   2.6000000000000001       ,    1.5681681279798989       ,  -0.23179589668898276     
   2.6200000000000001       ,    1.4925863808987292       ,  -0.24691595352289913     
   2.6400000000000001       ,    1.3804859299125793       ,  -0.26212592128818701     
   2.6600000000000001       ,    1.2337735886877026       ,  -0.27834069760245905     
   2.6800000000000002       ,    1.0551274730301390       ,  -0.29657539031629604     
   2.7000000000000002       ,   0.84790036908597610       ,  -0.31791808500452584     
   2.7200000000000002       ,   0.61600727785894693       ,  -0.34349749609838370     
   2.7400000000000002       ,   0.36380186021239336       ,  -0.37444578409294693     
   2.7600000000000002       ,    9.5946695583252112E-002  ,  -0.41185708425819723     
   2.7800000000000002       ,  -0.18271774697932169       ,  -0.45674256522133916     
   2.8000000000000003       ,  -0.46730073762464869       ,  -0.50998310493514554     
   2.8200000000000003       ,  -0.75298121805106966       ,  -0.57228092245220741     
   2.8399999999999999       ,   -1.0351162907810261       ,  -0.64411172211851486     
   2.8599999999999999       ,   -1.3093351980633394       ,  -0.72567907851039237     
   2.8799999999999999       ,   -1.5716164988305630       ,  -0.81687290329654805     
   2.8999999999999999       ,   -1.8183469879034337       ,  -0.91723387890710151     
   2.9199999999999999       ,   -2.0463617595264672       ,   -1.0259257107766417     
   2.9399999999999999       ,   -2.2529656595381136       ,   -1.1417169354715953     
   2.9600000000000000       ,   -2.4359371609401839       ,   -1.2629738251655767     
   2.9800000000000000       ,   -2.5935164034792213       ,   -1.3876656523246245     
   3.0000000000000000       ,   -2.7243797307989861       ,   -1.5133832284650253     
   3.0200000000000000       ,   -2.8276035161749569       ,   -1.6373712174033042     
   3.0400000000000000       ,   -2.9026203737567227       ,   -1.7565742597900840     
   3.0600000000000001       ,   -2.9491709976947242       ,   -1.8676964480207687     
   3.0800000000000001       ,   -2.9672548549491911       ,   -1.9672731772275063     
   3.1000000000000001       ,   -2.9570827846906447       ,   -2.0517538889187508     
   3.1200000000000001       ,   -2.9190342406228704       ,   -2.1175937396473703     
   3.1400000000000001       ,   -2.8536214711219596       ,   -2.1613517884661388     
   3.1600000000000001       ,   -2.7614623898990973       ,   -2.1797929235131352     
   3.1800000000000002       ,   -2.6432632751845797       ,   -2.1699904576740865     
   3.2000000000000002       ,   -2.4998117792211016       ,   -2.1294261310749030     
   3.2200000000000002       ,   -2.3319800645449789       ,   -2.0560841759938451     
   3.2400000000000002       ,   -2.1407372414350836       ,   -1.9485361355286290     
   3.2600000000000002       ,   -1.9271696928004085       ,   -1.8060132844932042     
   3.2800000000000002       ,   -1.6925073665493853       ,   -1.6284637783632854     
   3.3000000000000003       ,   -1.4381537149254706       ,   -1.4165920476891192     
   3.3200000000000003       ,   -1.1657166840676920       ,   -1.1718784506413580     
   3.3400000000000003       ,  -0.87703801791508607       ,  -0.89657778028479285     
   3.3599999999999999       ,  -0.57421814484446554       ,  -0.59369587694252846     
   3.3799999999999999       ,  -0.25963406277635703       ,  -0.26694429755103466     
   3.3999999999999999       ,    6.4052078028082202E-002  ,    7.9326281282774830E-002
   3.4199999999999999       ,   0.39389558880236564       ,   0.44021252774716901     
   3.4399999999999999       ,   0.72668443644061642       ,   0.81036269526828764     
   3.4600000000000000       ,    1.0589678104463223       ,    1.1840959099594399     
   3.4800000000000000       ,    1.3870982104801777       ,    1.5555332185509958     
   3.5000000000000000       ,    1.7072865339883465       ,    1.9187366546017945     
   3.5200000000000000       ,    2.0156689821809075       ,    2.2678522456041819     
   3.5400000000000000       ,    2.3083839791296401       ,    2.5972526832985716     
   3.5600000000000001       ,    2.5816567419601846       ,    2.9016753237011672     
   3.5800000000000001       ,    2.8318886761581861       ,    3.1763512763478010     
   3.6000000000000001       ,    3.0557484210060002       ,    3.4171215828918307     
   3.6200000000000001       ,    3.2502611532471843       ,    3.6205368667510491     
   3.6400000000000001       ,    3.4128926836340261       ,    3.7839373459207422     
   3.6600000000000001       ,    3.5416249562089672       ,    3.9055107233500497     
   3.6800000000000002       ,    3.6350197826971895       ,    3.9843261820625613     
   3.7000000000000002       ,    3.6922680065270805       ,    4.0203434905592674     
   3.7200000000000002       ,    3.7132217789407536       ,    4.0143970403885296     
   3.7400000000000002       ,    3.6984082241028897       ,    3.9681554628987890     
   3.7600000000000002       ,    3.6490234470835006       ,    3.8840582763813751     
   3.7800000000000002       ,    3.5669065704432277       ,    3.7652317689557271     
   3.8000000000000003       ,    3.4544942417777977       ,    3.6153869992688796     
   3.8200000000000003       ,    3.3147568046733196       ,    3.4387033717809308     
   3.8400000000000003       ,    3.1511180379117261       ,    3.2397016952327808     
   3.8599999999999999       ,    2.9673610127253913       ,    3.0231109455283773     
   3.8799999999999999       ,    2.7675231684250532       ,    2.7937331165871959     
   3.8999999999999999       ,    2.5557841396604029       ,    2.5563105492228213     
   3.9199999999999999       ,    2.3363501655941361       ,    2.3153999791170499     
   3.9399999999999999       ,    2.1133390596507686       ,    2.0752572466465589     
   3.9600000000000000       ,    1.8906697116475262       ,    1.8397361754445638     
   3.9800000000000000       ,    1.6719599318347844       ,    1.6122045700459338     
   4.0000000000000000       ,    1.4604361348870316       ,    1.3954796271641037     
   4.0199999999999996       ,    1.2588579135515348       ,    1.1917843251343443     
   4.0400000000000000       ,    1.0694599844591230       ,    1.0027255795687002     
   4.0599999999999996       ,   0.89391332537449919       ,   0.82929415965350617     
   4.0800000000000001       ,   0.73330659065685944       ,   0.67188557860210196     
   4.0999999999999996       ,   0.58814811945305800       ,   0.53034043269488140     
   4.1199999999999992       ,   0.45838807024509515       ,   0.40400199342924165     
   4.1399999999999997       ,   0.34345945718065490       ,   0.29178828104128346     
   4.1599999999999993       ,   0.24233615845614459       ,   0.19227538573188954     
   4.1799999999999997       ,   0.15360534294326195       ,   0.10378847144088758     
   4.1999999999999993       ,    7.5551242871315497E-002  ,    2.4496706895358555E-002
   4.2199999999999998       ,    6.2468078858670621E-003  ,   -4.7491674726057746E-002
   4.2399999999999993       ,   -5.6350475851718158E-002  ,  -0.11403788320053168     
   4.2599999999999998       ,  -0.11430241956613556       ,  -0.17688809816872547     
   4.2799999999999994       ,  -0.16959738563142632       ,  -0.23759909589305900     
   4.2999999999999998       ,  -0.22406452731007484       ,  -0.29747657170317343     
   4.3199999999999994       ,  -0.27929823968544010       ,  -0.35752817762557049     
   4.3399999999999999       ,  -0.33659558103386855       ,  -0.41843265051887873     
   4.3599999999999994       ,  -0.39690885291657951       ,  -0.48052572041428582     
   4.3799999999999999       ,  -0.46081487553244138       ,  -0.54380278941730420     
   4.3999999999999995       ,  -0.52850178969521000       ,  -0.60793768640741286     
   4.4199999999999999       ,  -0.59977348747955428       ,  -0.67231615892921504     
   4.4399999999999995       ,  -0.67407105015158042       ,  -0.73608218619168719     
   4.4600000000000000       ,  -0.75050988398546670       ,  -0.79819470812414617     
   4.4799999999999995       ,  -0.82793061976273308       ,  -0.85749198331537757     
   4.5000000000000000       ,  -0.90496130508863315       ,  -0.91276052722068990     
   4.5199999999999996       ,  -0.98008799120079726       ,  -0.96280545007757301     
   4.5400000000000000       ,   -1.0517305140393940       ,   -1.0065190150215728     
   4.5599999999999996       ,   -1.1183201039955741       ,   -1.0429443690254567     
   4.5800000000000001       ,   -1.1783754352006319       ,   -1.0713316553046852     
