r(A) ,   X_ray-calc  ,   X_ray_exp_renorm
   2.0000000000000000E-002  ,   -1.1380781178520263       ,   -3.0383920287343669     
   4.0000000000000001E-002  ,   -1.1903437378410844       ,   -3.0522266775338713     
   5.9999999999999998E-002  ,   -1.2756152223347268       ,   -3.0747876105826548     
   8.0000000000000002E-002  ,   -1.3912048720045642       ,   -3.1053482913736028     
  0.10000000000000001       ,   -1.5334854850482609       ,   -3.1429282277882606     
  0.12000000000000001       ,   -1.6980198076129189       ,   -3.1863279951430257     
  0.13999999999999999       ,   -1.8797184819069546       ,   -3.2341719980515862     
  0.16000000000000000       ,   -2.0730205775752228       ,   -3.2849573886856307     
  0.17999999999999999       ,   -2.2720899576416902       ,   -3.3371073333226628     
  0.19999999999999998       ,   -2.4710201545249677       ,   -3.3890266613519717     
  0.22000000000000000       ,   -2.6640401360223129       ,   -3.4391578470186563     
  0.23999999999999999       ,   -2.8457133365920799       ,   -3.4860352671738100     
  0.26000000000000001       ,   -3.0111226153267552       ,   -3.5283357482955320     
  0.28000000000000003       ,   -3.1560343670409088       ,   -3.5649235602731184     
  0.30000000000000004       ,   -3.2770358344723594       ,   -3.5948882273153790     
  0.32000000000000001       ,   -3.3716407153925738       ,   -3.6175737996797821     
  0.34000000000000002       ,   -3.4383593875243492       ,   -3.6325985532806357     
  0.36000000000000004       ,   -3.4767314386380264       ,   -3.6398644453064413     
  0.38000000000000000       ,   -3.4873196359932321       ,   -3.6395560390573491     
  0.40000000000000002       ,   -3.4716659423058545       ,   -3.6321290057243978     
  0.42000000000000004       ,   -3.4322116276894197       ,   -3.6182886998882147     
  0.44000000000000000       ,   -3.3721848829457950       ,   -3.5989596744782451     
  0.46000000000000002       ,   -3.2954605570829498       ,   -3.5752473359836410     
  0.48000000000000004       ,   -3.2063976744859688       ,   -3.5483932293432625     
  0.50000000000000000       ,   -3.1096611955673570       ,   -3.5197256734774007     
  0.52000000000000002       ,   -3.0100350386346379       ,   -3.4906076343566612     
  0.54000000000000004       ,   -2.9122336598026708       ,   -3.4623838168544796     
  0.56000000000000005       ,   -2.8207194824855080       ,   -3.4363289761409508     
  0.58000000000000007       ,   -2.7395331798787357       ,   -3.4135993936310944     
  0.59999999999999998       ,   -2.6721432554571862       ,   -3.3951893339220414     
  0.62000000000000000       ,   -2.6213205609256747       ,   -3.3818941028990981     
  0.64000000000000001       ,   -2.5890423708858394       ,   -3.3742810709424034     
  0.66000000000000003       ,   -2.5764294395846297       ,   -3.3726697188226527     
  0.68000000000000005       ,   -2.5837181449751392       ,   -3.3771214191767736     
  0.70000000000000007       ,   -2.6102684311742266       ,   -3.3874392965072713     
  0.72000000000000008       ,   -2.6546068471503346       ,   -3.4031781274474522     
  0.73999999999999999       ,   -2.7145026025458199       ,   -3.4236638649022697     
  0.76000000000000001       ,   -2.7870732747047762       ,   -3.4480220087393190     
  0.78000000000000003       ,   -2.8689156542597742       ,   -3.4752137153618357     
  0.80000000000000004       ,   -2.9562562543461381       ,   -3.5040782509054491     
  0.82000000000000006       ,   -3.0451152675630211       ,   -3.5333801584469700     
  0.84000000000000008       ,   -3.1314772632440553       ,   -3.5618593369158926     
  0.85999999999999999       ,   -3.2114616935956040       ,   -3.5882821244188428     
  0.88000000000000000       ,   -3.2814863283758013       ,   -3.6114914449145350     
  0.90000000000000002       ,   -3.3384170607573709       ,   -3.6304541154277308     
  0.92000000000000004       ,   -3.3796981079005133       ,   -3.6443035193956899     
  0.94000000000000006       ,   -3.4034574445353374       ,   -3.6523760258430071     
  0.96000000000000008       ,   -3.4085833233921972       ,   -3.6542397670291331     
  0.97999999999999998       ,   -3.3947689117290203       ,   -3.6497146700352552     
   1.0000000000000000       ,   -3.3625233614650782       ,   -3.6388829597271224     
   1.0200000000000000       ,   -3.3131489802599052       ,   -3.6220896995761320     
   1.0400000000000000       ,   -3.2486855287626351       ,   -3.5999332999972773     
   1.0600000000000001       ,   -3.1718239815776195       ,   -3.5732462878362155     
   1.0800000000000001       ,   -3.0857933046124058       ,   -3.5430669821910517     
   1.1000000000000001       ,   -2.9942248717774427       ,   -3.5106030482721038     
   1.1200000000000001       ,   -2.9010000277475450       ,   -3.4771881909281595     
   1.1400000000000001       ,   -2.8100869664180279       ,   -3.4442334927212750     
   1.1600000000000001       ,   -2.7253735113494577       ,   -3.4131750897549362     
   1.1799999999999999       ,   -2.6505025392283228       ,   -3.3854200056983710     
   1.2000000000000000       ,   -2.5887166748631487       ,   -3.3622920267416947     
   1.2200000000000000       ,   -2.5427185117068820       ,   -3.3449794961034605     
   1.2400000000000000       ,   -2.5145519908447889       ,   -3.3344868371485372     
   1.2600000000000000       ,   -2.5055097289493355       ,   -3.3315914824497677     
   1.2800000000000000       ,   -2.5160700556308742       ,   -3.3368076977087311     
   1.3000000000000000       ,   -2.5458663439109981       ,   -3.3503585517348000     
   1.3200000000000001       ,   -2.5936899408431544       ,   -3.3721570056938832     
   1.3400000000000001       ,   -2.6575266789982814       ,   -3.4017967868650540     
   1.3600000000000001       ,   -2.7346256258029289       ,   -3.4385533853334107     
   1.3800000000000001       ,   -2.8215974584644030       ,   -3.4813951779911010     
   1.4000000000000001       ,   -2.9145386870463295       ,   -3.5290043545095164     
   1.4200000000000002       ,   -3.0091769325277120       ,   -3.5798070057675351     
   1.4399999999999999       ,   -3.1010316397540545       ,   -3.6320114469504134     
   1.4600000000000000       ,   -3.1855839989192840       ,   -3.6836535943864273     
   1.4800000000000000       ,   -3.2584494867225469       ,   -3.7326480049172757     
   1.5000000000000000       ,   -3.3155463331468300       ,   -3.7768430252575751     
   1.5200000000000000       ,   -3.3532533753423697       ,   -3.8140783905741173     
   1.5400000000000000       ,   -3.3685511696283292       ,   -3.8422435586308512     
   1.5600000000000001       ,   -3.3591408795370428       ,   -3.8593350685479453     
   1.5800000000000001       ,   -3.3235363163313494       ,   -3.8635112698367160     
   1.6000000000000001       ,   -3.2611255446004508       ,   -3.8531428744262879     
   1.6200000000000001       ,   -3.1721996386952771       ,   -3.8268579368198949     
   1.6400000000000001       ,   -3.0579474400451025       ,   -3.7835800588665398     
   1.6600000000000001       ,   -2.9204164716116918       ,   -3.7225588383955066     
   1.6800000000000002       ,   -2.7624414632695804       ,   -3.6433918268500949     
   1.7000000000000000       ,   -2.5875431806977174       ,   -3.5460375213573210     
   1.7200000000000000       ,   -2.3998013828753630       ,   -3.4308191825565126     
   1.7400000000000000       ,   -2.2037067162708603       ,   -3.2984195323742753     
   1.7600000000000000       ,   -2.0039971500621689       ,   -3.1498666376804838     
   1.7800000000000000       ,   -1.8054851363944693       ,   -2.9865115190705622     
   1.8000000000000000       ,   -1.6128820214346711       ,   -2.8099982325729158     
   1.8200000000000001       ,   -1.4306263247817557       ,   -2.6222273507216225     
   1.8400000000000001       ,   -1.2627223442877398       ,   -2.4253139142973676     
   1.8600000000000001       ,   -1.1125951379085668       ,   -2.2215410345987978     
   1.8800000000000001       ,  -0.98296730058739124       ,   -2.0133103971896742     
   1.9000000000000001       ,  -0.87576211778336399       ,   -1.8030909518010048     
   1.9200000000000002       ,  -0.79203667113011167       ,   -1.5933670707834866     
   1.9399999999999999       ,  -0.73194733516091359       ,   -1.3865874225992001     
   1.9600000000000000       ,  -0.69474888112053490       ,   -1.1851157406045110     
   1.9800000000000000       ,  -0.67882714163546698       ,  -0.99118457479592459     
   2.0000000000000000       ,  -0.68176393662666024       ,  -0.80685299974635594     
   2.0200000000000000       ,  -0.70043176380002059       ,  -0.63396912040648257     
   2.0400000000000000       ,  -0.73111466128115321       ,  -0.47413807361080335     
   2.0600000000000001       ,  -0.76965069616772819       ,  -0.32869607171683285     
   2.0800000000000001       ,  -0.81159075587659846       ,  -0.19869088023796158     
   2.1000000000000001       ,  -0.85236774701924445       ,   -8.4868967597508463E-002
   2.1200000000000001       ,  -0.88746995893539216       ,    1.2330584303085434E-002
   2.1400000000000001       ,  -0.91261223698550575       ,    9.2775462279620635E-002
   2.1600000000000001       ,  -0.92389873619720631       ,   0.15663298326883476     
   2.1800000000000002       ,  -0.91797138175982740       ,   0.20435674322821151     
   2.2000000000000002       ,  -0.89213873335218263       ,   0.23666747159747892     
   2.2200000000000002       ,  -0.84448071156679583       ,   0.25452860656794529     
   2.2400000000000002       ,  -0.77392556597196460       ,   0.25911719087624652     
   2.2600000000000002       ,  -0.68029650912610806       ,   0.25179075979714682     
   2.2800000000000002       ,  -0.56432656837809370       ,   0.23405095285019234     
   2.3000000000000003       ,  -0.42764137418097936       ,   0.20750462893329230     
   2.3200000000000003       ,  -0.27271076562220126       ,   0.17382330160328230     
   2.3399999999999999       ,  -0.10277120743558185       ,   0.13470173737245011     
   2.3599999999999999       ,    7.8277963125427966E-002  ,    9.1816575324378133E-002
   2.3799999999999999       ,   0.26600054353465935       ,    4.6785830982596970E-002
   2.3999999999999999       ,   0.45556707182665984       ,    1.1301408481483152E-003
   2.4199999999999999       ,   0.64191081922121385       ,   -4.3763414222353712E-002
   2.4399999999999999       ,   0.81989060247301104       ,   -8.6674099374810631E-002
   2.4600000000000000       ,   0.98445470437589500       ,  -0.12657616657983406     
   2.4800000000000000       ,    1.1308002586726724       ,  -0.16266264113185261     
   2.5000000000000000       ,    1.2545227291867014       ,  -0.19436362270271926     
   2.5200000000000000       ,    1.3517505779661294       ,  -0.22135855931148454     
   2.5400000000000000       ,    1.4192608522166690       ,  -0.24358205817811396     
   2.5600000000000001       ,    1.4545721972834791       ,  -0.26122291900006345     
   2.5800000000000001       ,    1.4560126904843094       ,  -0.27471621199628876     
   2.6000000000000001       ,    1.4227608521712782       ,  -0.28472837371065757     
   2.6200000000000001       ,    1.3548591878759075       ,  -0.29213545593399864     
   2.6400000000000001       ,    1.2532006100609663       ,  -0.29799483431326307     
   2.6600000000000001       ,    1.1194890421019623       ,  -0.30351085963919749     
   2.6800000000000002       ,   0.95617638529867144       ,  -0.30999511211424635     
   2.7000000000000002       ,   0.76637880037614503       ,  -0.31882209216474944     
   2.7200000000000002       ,   0.55377589139830774       ,  -0.33138134516680079     
   2.7400000000000002       ,   0.32249686148537721       ,  -0.34902716608798623     
   2.7600000000000002       ,    7.6998021974198194E-002  ,  -0.37302715768991723     
   2.7800000000000002       ,  -0.17806382753261676       ,  -0.40451101689406355     
   2.8000000000000003       ,  -0.43795767149687076       ,  -0.44442099285684061     
   2.8200000000000003       ,  -0.69799993674427996       ,  -0.49346549251381211     
   2.8399999999999999       ,  -0.95366763677645194       ,  -0.55207730097742758     
   2.8599999999999999       ,   -1.2006996053654446       ,  -0.62037783243055633     
   2.8799999999999999       ,   -1.4351830383716391       ,  -0.69814873055057614     
   2.8999999999999999       ,   -1.6536232626286427       ,  -0.78481199596729989     
   2.9199999999999999       ,   -1.8529954040096448       ,  -0.87941963329420647     
   2.9399999999999999       ,   -2.0307774012218802       ,  -0.98065358497535060     
   2.9600000000000000       ,   -2.1849645752646980       ,   -1.0868364582623806     
   2.9800000000000000       ,   -2.3140666859434709       ,   -1.1959532613128339     
   3.0000000000000000       ,   -2.4170890580206992       ,   -1.3056840523192246     
   3.0200000000000000       ,   -2.4934999158363902       ,   -1.4134470805785080     
   3.0400000000000000       ,   -2.5431865064699726       ,   -1.5164516702835178     
   3.0600000000000001       ,   -2.5664029030054980       ,   -1.6117597769961063     
   3.0800000000000001       ,   -2.5637125522893904       ,   -1.6963548439801066     
   3.1000000000000001       ,   -2.5359286628966520       ,   -1.7672163114881563     
   3.1200000000000001       ,   -2.4840554220753579       ,   -1.8213978969046309     
   3.1400000000000001       ,   -2.4092327942491805       ,   -1.8561075766852244     
   3.1600000000000001       ,   -2.3126873025568724       ,   -1.8687870704130276     
   3.1800000000000002       ,   -2.1956907478214611       ,   -1.8571885595472057     
   3.2000000000000002       ,   -2.0595282988938828       ,   -1.8194463732358415     
   3.2200000000000002       ,   -1.9054768198001615       ,   -1.7541414434482996     
   3.2400000000000002       ,   -1.7347937093714394       ,   -1.6603564719134729     
   3.2600000000000002       ,   -1.5487159452544332       ,   -1.5377199598101507     
   3.2800000000000002       ,   -1.3484684727861387       ,   -1.3864375233341768     
   3.3000000000000003       ,   -1.1352805846489249       ,   -1.2073092473442666     
   3.3200000000000003       ,  -0.91040852103809344       ,   -1.0017322063014749     
   3.3400000000000003       ,  -0.67516219998786420       ,  -0.77168769580860475     
   3.3599999999999999       ,  -0.43093377669949745       ,  -0.51971315680357633     
   3.3799999999999999       ,  -0.17922563734903740       ,  -0.24885922426828647     
   3.3999999999999999       ,    7.8324540242827895E-002  ,    3.7367221136899588E-002
   3.4199999999999999       ,   0.33992388205766266       ,   0.33507269137536927     
   3.4399999999999999       ,   0.60361153778206755       ,   0.64005771552162194     
   3.4600000000000000       ,   0.86725464140180064       ,   0.94790639570367774     
   3.4800000000000000       ,    1.1285541958990963       ,    1.2540825466804686     
   3.5000000000000000       ,    1.3850615721078434       ,    1.5540298465663018     
   3.5200000000000000       ,    1.6342057806126142       ,    1.8432732783755787     
   3.5400000000000000       ,    1.8733311308511185       ,    2.1175190770006713     
   3.5600000000000001       ,    2.0997443580207475       ,    2.3727504171919920     
   3.5800000000000001       ,    2.3107698001250880       ,    2.6053161854548494     
   3.6000000000000001       ,    2.5038107670177445       ,    2.8120103699590810     
   3.6200000000000001       ,    2.6764148805095798       ,    2.9901398721475081     
   3.6400000000000001       ,    2.8263408959706235       ,    3.1375788835787199     
   3.6600000000000001       ,    2.9516243537315461       ,    3.2528083710274625     
   3.6800000000000002       ,    3.0506393606951705       ,    3.3349396592501503     
   3.7000000000000002       ,    3.1221538716985600       ,    3.3837215796627138     
   3.7200000000000002       ,    3.1653760240775957       ,    3.3995311488273718     
   3.7400000000000002       ,    3.1799893704240607       ,    3.3833482367941792     
   3.7600000000000002       ,    3.1661752419387668       ,    3.3367151655862304     
   3.7800000000000002       ,    3.1246209422472213       ,    3.2616826265338856     
   3.8000000000000003       ,    3.0565129998320484       ,    3.1607437068758584     
   3.8200000000000003       ,    2.9635152745538105       ,    3.0367581577599019     
   3.8400000000000003       ,    2.8477322966325307       ,    2.8928693062479849     
   3.8599999999999999       ,    2.7116587908442895       ,    2.7324162043789126     
   3.8799999999999999       ,    2.5581168807967365       ,    2.5588437127577861     
   3.8999999999999999       ,    2.3901829555782581       ,    2.3756132315118244     
   3.9199999999999999       ,    2.2111065936899150       ,    2.1861167178658514     
   3.9399999999999999       ,    2.0242242599375957       ,    1.9935964702354854     
   3.9600000000000000       ,    1.8328707066473442       ,    1.8010729197821904     
   3.9800000000000000       ,    1.6402911122732882       ,    1.6112823607500584     
   4.0000000000000000       ,    1.4495569739780403       ,    1.4266261819673451     
   4.0199999999999996       ,    1.2634886367086813       ,    1.2491327470209950     
   4.0400000000000000       ,    1.0845870950882843       ,    1.0804326246992266     
   4.0599999999999996       ,   0.91497735606783193       ,   0.92174741023059137     
   4.0800000000000001       ,   0.75636521382935229       ,   0.77389191791175416     
   4.0999999999999996       ,   0.61000878151784399       ,   0.63728908300943365     
   4.1199999999999992       ,   0.47670556740518399       ,   0.51199650066573177     
   4.1399999999999997       ,   0.35679529839209645       ,   0.39774316592774650     
   4.1599999999999993       ,   0.25017810467721791       ,   0.29397467412849615     
   4.1799999999999997       ,   0.15634710936477303       ,   0.19990490457276328     
   4.1999999999999993       ,    7.4433938236990169E-002  ,   0.11457205012879847     
   4.2199999999999998       ,    3.2651985644072444E-003  ,    3.6896775339351526E-002
   4.2399999999999993       ,   -5.8572410297269922E-002  ,   -3.4259712501964211E-002
   4.2599999999999998       ,  -0.11266098299611921       ,  -0.10003981277754480     
   4.2799999999999994       ,  -0.16067710500373322       ,  -0.16153787710245357     
   4.2999999999999998       ,  -0.20431724773137094       ,  -0.21975450027262944     
   4.3199999999999994       ,  -0.24522570913643998       ,  -0.27555822064843788     
   4.3399999999999999       ,  -0.28492779551301883       ,  -0.32965576166737137     
   4.3599999999999994       ,  -0.32477068474470272       ,  -0.38257158000524144     
   4.3799999999999999       ,  -0.36587406330142791       ,  -0.43463710028552899     
   4.3999999999999995       ,  -0.40909220363729654       ,  -0.48598962606473406     
   4.4199999999999999       ,  -0.45498866332814542       ,  -0.53658053693847729     
   4.4399999999999995       ,  -0.50382426243054368       ,  -0.58619202624315703     
   4.4600000000000000       ,  -0.55555845268415460       ,  -0.63446131604758671     
   4.4799999999999995       ,  -0.60986365334269121       ,  -0.68091101738091231     
   4.5000000000000000       ,  -0.66615161522006128       ,  -0.72498409332065128     
   4.5199999999999996       ,  -0.72361040730527260       ,  -0.76608173767656551     
   4.5400000000000000       ,  -0.78125021725911825       ,  -0.80360240693811347     
   4.5599999999999996       ,  -0.83795583366222748       ,  -0.83698023953203637     
   4.5800000000000001       ,  -0.89254344602539704       ,  -0.86572116310333536     
