r(A) ,   X_ray-calc  ,   X_ray_exp_renorm
   2.0000000000000000E-002  ,    6.5811143707577402E-002  ,   -1.1517838794377449     
   4.0000000000000001E-002  ,   -9.5734841118099261E-003  ,   -1.2001375199705657     
   5.9999999999999998E-002  ,  -0.13278366897942395       ,   -1.2791895445622143     
   8.0000000000000002E-002  ,  -0.30025951585371546       ,   -1.3866879471366322     
  0.10000000000000001       ,  -0.50718674784972850       ,   -1.5195860384305442     
  0.12000000000000001       ,  -0.74765889630372129       ,   -1.6741439804121347     
  0.13999999999999999       ,   -1.0148755910569585       ,   -1.8460529732457791     
  0.16000000000000000       ,   -1.3013698037430315       ,   -2.0305776556512236     
  0.17999999999999999       ,   -1.5992558749716232       ,   -2.2227116427174582     
  0.19999999999999998       ,   -1.9004894397845153       ,   -2.4173406770525196     
  0.22000000000000000       ,   -2.1971299806693607       ,   -2.6094076257293621     
  0.23999999999999999       ,   -2.4815966971345409       ,   -2.7940735251796101     
  0.26000000000000001       ,   -2.7469086855971647       ,   -2.9668690592420615     
  0.28000000000000003       ,   -2.9869010602121064       ,   -3.1238312441615381     
  0.30000000000000004       ,   -3.1964095887690389       ,   -3.2616206728698014     
  0.32000000000000001       ,   -3.3714176308327839       ,   -3.3776154166487378     
  0.34000000000000002       ,   -3.5091606007150702       ,   -3.4699785663318239     
  0.36000000000000004       ,   -3.6081847802068459       ,   -3.5376973835128798     
  0.38000000000000000       ,   -3.6683590137478781       ,   -3.5805930870043712     
  0.40000000000000002       ,   -3.6908395666523695       ,   -3.5993013809416401     
  0.42000000000000004       ,   -3.6779901487753168       ,   -3.5952248976422823     
  0.44000000000000000       ,   -3.6332607366245075       ,   -3.5704597406146985     
  0.46000000000000002       ,   -3.5610303053329062       ,   -3.5276992333459436     
  0.48000000000000004       ,   -3.4664198532710153       ,   -3.4701187738591472     
  0.50000000000000000       ,   -3.3550831198852693       ,   -3.4012463347588087     
  0.52000000000000002       ,   -3.2329831251375460       ,   -3.3248236109606601     
  0.54000000000000004       ,   -3.1061630716450956       ,   -3.2446630868764275     
  0.56000000000000005       ,   -2.9805202355257432       ,   -3.1645063633481567     
  0.58000000000000007       ,   -2.8615912289967307       ,   -3.0878889517182273     
  0.59999999999999998       ,   -2.7543564595298995       ,   -3.0180164154062328     
  0.62000000000000000       ,   -2.6630707614427287       ,   -2.9576562329256952     
  0.64000000000000001       ,   -2.5911260718066416       ,   -2.9090490918175829     
  0.66000000000000003       ,   -2.5409507086066818       ,   -2.8738425277402539     
  0.68000000000000005       ,   -2.5139483380101177       ,   -2.8530489288923269     
  0.70000000000000007       ,   -2.5104781477914608       ,   -2.8470289684451813     
  0.72000000000000008       ,   -2.5298761370699943       ,   -2.8555005441450336     
  0.73999999999999999       ,   -2.5705158510231669       ,   -2.8775723326818596     
  0.76000000000000001       ,   -2.6299053940092461       ,   -2.9118001438661820     
  0.78000000000000003       ,   -2.7048162024542441       ,   -2.9562634208008860     
  0.80000000000000004       ,   -2.7914379006599144       ,   -3.0086585081103294     
  0.82000000000000006       ,   -2.8855526410150323       ,   -3.0664047270842967     
  0.84000000000000008       ,   -2.9827216779089181       ,   -3.1267588747028232     
  0.85999999999999999       ,   -3.0784765640498155       ,   -3.1869335168093205     
  0.88000000000000000       ,   -3.1685072993430636       ,   -3.2442143810920925     
  0.90000000000000002       ,   -3.2488400045250918       ,   -3.2960722727674980     
  0.92000000000000004       ,   -3.3159972211668016       ,   -3.3402652276263733     
  0.94000000000000006       ,   -3.3671347321370053       ,   -3.3749270694355626     
  0.96000000000000008       ,   -3.4001498177975265       ,   -3.3986391315749431     
  0.97999999999999998       ,   -3.4137570701506883       ,   -3.4104826110661195     
   1.0000000000000000       ,   -3.4075292301427198       ,   -3.4100698175372912     
   1.0200000000000000       ,   -3.3819019378448787       ,   -3.3975534279988784     
   1.0400000000000000       ,   -3.3381427342201131       ,   -3.3736137268046886     
   1.0600000000000001       ,   -3.2782860692887339       ,   -3.3394246648361330     
   1.0800000000000001       ,   -3.2050373993605712       ,   -3.2966003798506902     
   1.1000000000000001       ,   -3.1216506443841965       ,   -3.2471245505335897     
   1.1200000000000001       ,   -3.0317842802778574       ,   -3.1932655830698562     
   1.1400000000000001       ,   -2.9393421230961181       ,   -3.1374811285359190     
   1.1600000000000001       ,   -2.8483053940163101       ,   -3.0823157849683596     
   1.1799999999999999       ,   -2.7625629185921809       ,   -3.0302960384098108     
   1.2000000000000000       ,   -2.6857463035200819       ,   -2.9838265376319066     
   1.2200000000000000       ,   -2.6210766532588590       ,   -2.9450916790297850     
   1.2400000000000000       ,   -2.5712288518676698       ,   -2.9159662089853549     
   1.2600000000000000       ,   -2.5382186669664568       ,   -2.8979381441986707     
   1.2800000000000000       ,   -2.5233169662296882       ,   -2.8920467846074089     
   1.3000000000000000       ,   -2.5269942131617915       ,   -2.8988379713770605     
   1.3200000000000001       ,   -2.5488971746382698       ,   -2.9183380501854246     
   1.3400000000000001       ,   -2.5878584781707556       ,   -2.9500472659895363     
   1.3600000000000001       ,   -2.6419383541265731       ,   -2.9929525690389052     
   1.3800000000000001       ,   -2.7084966388885738       ,   -3.0455590823209744     
   1.4000000000000001       ,   -2.7842919484312576       ,   -3.1059387958158364     
   1.4200000000000002       ,   -2.8656039029013494       ,   -3.1717944384275971     
   1.4399999999999999       ,   -2.9483734303155815       ,   -3.2405359564112035     
   1.4600000000000000       ,   -3.0283555326513718       ,   -3.3093666155183605     
   1.4800000000000000       ,   -3.1012784829243829       ,   -3.3753754561339977     
   1.5000000000000000       ,   -3.1630032503527667       ,   -3.4356326743437213     
   1.5200000000000000       ,   -3.2096770255549294       ,   -3.4872844797226770     
   1.5400000000000000       ,   -3.2378750322132128       ,   -3.5276440898484442     
   1.5600000000000001       ,   -3.2447253496025410       ,   -3.5542757541562016     
   1.5800000000000001       ,   -3.2280122070141011       ,   -3.5650690431288585     
   1.6000000000000001       ,   -3.1862541140392491       ,   -3.5583010762510465     
   1.6200000000000001       ,   -3.1187542214313533       ,   -3.5326848736877383     
   1.6400000000000001       ,   -3.0256214228576064       ,   -3.4874025799387889     
   1.6600000000000001       ,   -2.9077618626212609       ,   -3.4221228990395431     
   1.6800000000000002       ,   -2.7668416618989728       ,   -3.3370026761084373     
   1.7000000000000000       ,   -2.6052227707911997       ,   -3.2326731356838359     
   1.7200000000000000       ,   -2.4258748530070138       ,   -3.1102118214019336     
   1.7400000000000000       ,   -2.2322669763341221       ,   -2.9711017546279916     
   1.7600000000000000       ,   -2.0282435832301777       ,   -2.8171797252974242     
   1.7800000000000000       ,   -1.8178897271694292       ,   -2.6505759338246895     
   1.8000000000000000       ,   -1.6053908651304039       ,   -2.4736474100149768     
   1.8200000000000001       ,   -1.3948925867823012       ,   -2.2889077393522412     
   1.8400000000000001       ,   -1.1903655372834161       ,   -2.0989556291238221     
   1.8600000000000001       ,  -0.99548046252479139       ,   -1.9064047511022986     
   1.8800000000000001       ,  -0.81349779059470173       ,   -1.7138171123713537     
   1.9000000000000001       ,  -0.64717548588713003       ,   -1.5236419431969590     
   1.9200000000000002       ,  -0.49869810339710013       ,   -1.3381617652351725     
   1.9399999999999999       ,  -0.36962906581956856       ,   -1.1594469315141651     
   1.9600000000000000       ,  -0.26088722375386464       ,  -0.98931952946648072     
   1.9800000000000000       ,  -0.17274777979914238       ,  -0.82932712817878373     
   2.0000000000000000       ,  -0.10486670064508802       ,  -0.68072644893189937     
   2.0200000000000000       ,   -5.6326845657869440E-002  ,  -0.54447666080100743     
   2.0400000000000000       ,   -2.5703240838904209E-002  ,  -0.42124166546387914     
   2.0600000000000001       ,   -1.1144253583245209E-002  ,  -0.31140044982170845     
   2.0800000000000001       ,   -1.0464900704604629E-002  ,  -0.21506436100839119     
   2.1000000000000001       ,   -2.1248167280081991E-002  ,  -0.13210000200291400     
   2.1200000000000001       ,   -4.0950037195642407E-002  ,   -6.2156360071035588E-002
   2.1400000000000001       ,   -6.7003940405075610E-002  ,   -4.6947639076445205E-003
   2.1600000000000001       ,   -9.6920501823078029E-002  ,    4.0979685393840684E-002
   2.1800000000000002       ,  -0.12837882020895819       ,    7.5686456550545414E-002
   2.2000000000000002       ,  -0.15930599355112521       ,   0.10033879352920050     
   2.2200000000000002       ,  -0.18794221589106069       ,   0.11591467973413688     
   2.2400000000000002       ,  -0.21288947029952265       ,   0.12343023720476053     
   2.2600000000000002       ,  -0.23314260173949680       ,   0.12391600661802227     
   2.2800000000000002       ,  -0.24810233798116943       ,   0.11839632570284707     
   2.3000000000000003       ,  -0.25757060247134167       ,   0.10787181052966438     
   2.3200000000000003       ,  -0.26172919719822862       ,    9.3304757455155943E-002
   2.3399999999999999       ,  -0.26110359580990505       ,    7.5607132792357576E-002
   2.3599999999999999       ,  -0.25651415105132980       ,    5.5630709692852290E-002
   2.3799999999999999       ,  -0.24901746438676084       ,    3.4158851742532657E-002
   2.3999999999999999       ,  -0.23984097361070042       ,    1.1899431983051404E-002
   2.4199999999999999       ,  -0.23031397676352811       ,   -1.0521586835453995E-002
   2.4399999999999999       ,  -0.22179832479844908       ,   -3.2566304109480179E-002
   2.4600000000000000       ,  -0.21562188483080133       ,   -5.3791040744918507E-002
   2.4800000000000000       ,  -0.21301761038860545       ,   -7.3852635263357544E-002
   2.5000000000000000       ,  -0.21507067057834559       ,   -9.2514842051989524E-002
   2.5200000000000000       ,  -0.22267560714393675       ,  -0.10965462732220833     
   2.5400000000000000       ,  -0.23650493164519898       ,  -0.12526799466976088     
   2.5600000000000001       ,  -0.25698997182295641       ,  -0.13947482661090313     
   2.5800000000000001       ,  -0.28431415558481993       ,  -0.15252211227113374     
   2.6000000000000001       ,  -0.31841831208245452       ,  -0.16478485425077694     
   2.6200000000000001       ,  -0.35901700010271392       ,  -0.17676391731660210     
   2.6400000000000001       ,  -0.40562437016804653       ,  -0.18908010325424082     
   2.6600000000000001       ,  -0.45758765058131556       ,  -0.20246381245682818     
   2.6800000000000002       ,  -0.51412603698722248       ,  -0.21773978312443854     
   2.7000000000000002       ,  -0.57437257252511287       ,  -0.23580657975770164     
   2.7200000000000002       ,  -0.63741653831485678       ,  -0.25761072744310159     
   2.7400000000000002       ,  -0.70234393292704045       ,  -0.28411564802463118     
   2.7600000000000002       ,  -0.76827379981616362       ,  -0.31626583707960804     
   2.7800000000000002       ,  -0.83438845299423714       ,  -0.35494701327580142     
   2.8000000000000003       ,  -0.89995603795320944       ,  -0.40094325956563731     
   2.8200000000000003       ,  -0.96434432713129714       ,  -0.45489244360622166     
   2.8399999999999999       ,   -1.0270251637884285       ,  -0.51724143779223708     
   2.8599999999999999       ,   -1.0875695094315319       ,  -0.58820284327284866     
   2.8799999999999999       ,   -1.1456335912120896       ,  -0.66771504483617727     
   2.8999999999999999       ,   -1.2009371604152921       ,  -0.75540747440380640     
   2.9199999999999999       ,   -1.2532353360084487       ,  -0.85057293274570434     
   2.9399999999999999       ,   -1.3022858954316723       ,  -0.95214870785989592     
   2.9600000000000000       ,   -1.3478141691306149       ,   -1.0587080338279156     
   2.9800000000000000       ,   -1.3894778808780754       ,   -1.1684631591870556     
   3.0000000000000000       ,   -1.4268343429102901       ,   -1.2792809460436534     
   3.0200000000000000       ,   -1.4593123590381099       ,   -1.3887115109543182     
   3.0400000000000000       ,   -1.4861910116297530       ,   -1.4940299599277249     
   3.0600000000000001       ,   -1.5065872168143717       ,   -1.5922907793895245     
   3.0800000000000001       ,   -1.5194535389004278       ,   -1.6803939413560791     
   3.1000000000000001       ,   -1.5235872771256869       ,   -1.7551612844940465     
   3.1200000000000001       ,   -1.5176512967961389       ,   -1.8134212638625979     
   3.1400000000000001       ,   -1.5002064970724147       ,   -1.8520997412819231     
   3.1600000000000001       ,   -1.4697552155934090       ,   -1.8683141345872791     
   3.1800000000000002       ,   -1.4247942931022952       ,   -1.8594679746111187     
   3.2000000000000002       ,   -1.3638759862073877       ,   -1.8233427478592281     
   3.2200000000000002       ,   -1.2856744487426426       ,   -1.7581838412790971     
   3.2400000000000002       ,   -1.1890551245528074       ,   -1.6627774599737200     
   3.2600000000000002       ,   -1.0731441258427317       ,   -1.5365155614580859     
   3.2800000000000002       ,  -0.93739452582582339       ,   -1.3794461386968864     
   3.3000000000000003       ,  -0.78164648134318071       ,   -1.1923065816191480     
   3.3200000000000003       ,  -0.60617822375476016       ,  -0.97653834148133645     
   3.3400000000000003       ,  -0.41174521217949656       ,  -0.73428169858745185     
   3.3599999999999999       ,  -0.19960512369445885       ,  -0.46835007209182666     
   3.3799999999999999       ,    2.8473153518353080E-002  ,  -0.18218398860153284     
   3.3999999999999999       ,   0.27021777474800940       ,   0.12021448034419412     
   3.4199999999999999       ,   0.52288003950224493       ,   0.43436531868311201     
   3.4399999999999999       ,   0.78327824209710550       ,   0.75541006368607999     
   3.4600000000000000       ,    1.0478584668922382       ,    1.0782244744656320     
   3.4800000000000000       ,    1.3127708294341329       ,    1.3975411419048618     
   3.5000000000000000       ,    1.5739590156725969       ,    1.7080784125286510     
   3.5200000000000000       ,    1.8272603943484893       ,    2.0046717214341361     
   3.5400000000000000       ,    2.0685134974921491       ,    2.2824032851438791     
   3.5600000000000001       ,    2.2936693018217986       ,    2.5367261015699172     
   3.5800000000000001       ,    2.4989025161048661       ,    2.7635783433642032     
   3.6000000000000001       ,    2.6807189972491292       ,    2.9594845095697635     
   3.6200000000000001       ,    2.8360554861336609       ,    3.1216401101288143     
   3.6400000000000001       ,    2.9623680719334873       ,    3.2479771848374699     
   3.6600000000000001       ,    3.0577061537619601       ,    3.3372085845609538     
   3.6800000000000002       ,    3.1207691578053787       ,    3.3888496458116197     
   3.7000000000000002       ,    3.1509438683542967       ,    3.4032166449152186     
   3.7200000000000002       ,    3.1483209192213919       ,    3.3814021975707158     
   3.7400000000000002       ,    3.1136897412679341       ,    3.3252285451618664     
   3.7600000000000002       ,    3.0485120428281793       ,    3.2371804122132870     
   3.7800000000000002       ,    2.9548746820085308       ,    3.1203198025061325     
   3.8000000000000003       ,    2.8354235422849308       ,    2.9781856993411466     
   3.8200000000000003       ,    2.6932807157833785       ,    2.8146821261777690     
   3.8400000000000003       ,    2.5319479046979780       ,    2.6339583893149325     
   3.8599999999999999       ,    2.3551994465319916       ,    2.4402855510701129     
   3.8799999999999999       ,    2.1669687337329937       ,    2.2379332619724264     
   3.8999999999999999       ,    1.9712320185651087       ,    2.0310510113046583     
   3.9199999999999999       ,    1.7718936612671115       ,    1.8235576400812343     
   3.9399999999999999       ,    1.5726767913906954       ,    1.6190426079697529     
   3.9600000000000000       ,    1.3770231126477543       ,    1.4206820297075551     
   3.9800000000000000       ,    1.1880052006384254       ,    1.2311719158609136     
   4.0000000000000000       ,    1.0082541361536630       ,    1.0526803898948673     
   4.0199999999999996       ,   0.83990470501404213       ,   0.88681993409328208     
   4.0400000000000000       ,   0.68455970342683981       ,   0.73463996856603131     
   4.0599999999999996       ,   0.54327414353764192       ,   0.59663931903881862     
   4.0800000000000001       ,   0.41655938710476992       ,   0.47279740881190613     
   4.0999999999999996       ,   0.30440647665781739       ,   0.36262234539080901     
   4.1199999999999992       ,   0.20632721321888242       ,   0.26521348768490094     
   4.1399999999999997       ,   0.12141087603036083       ,   0.17933559688561862     
   4.1599999999999993       ,    4.8393918213392777E-002  ,   0.10350131057873511     
   4.1799999999999997       ,   -1.4260475572797523E-002  ,    3.6058447919073575E-002
   4.1999999999999993       ,   -6.8276400816770721E-002  ,   -2.4721438869329326E-002
   4.2199999999999998       ,  -0.11547642117424695       ,   -8.0556803010986833E-002
   4.2399999999999993       ,  -0.15769356820510019       ,  -0.13307548247282386     
   4.2599999999999998       ,  -0.19668766994106821       ,  -0.18374275716436506     
   4.2799999999999994       ,  -0.23406926702183831       ,  -0.23380069362930425     
   4.2999999999999998       ,  -0.27123398889233763       ,  -0.28422086385665590     
   4.3199999999999994       ,  -0.30930976579941127       ,  -0.33567192858278760     
   4.3399999999999999       ,  -0.34911866679232562       ,  -0.38850293070519376     
   4.3599999999999994       ,  -0.39115450478829333       ,  -0.44274247766924346     
   4.3799999999999999       ,  -0.43557666455279859       ,  -0.49811333000580865     
   4.3999999999999995       ,  -0.48221991691828786       ,  -0.55406128318186798     
   4.4199999999999999       ,  -0.53061931148773056       ,  -0.60979665660642368     
   4.4399999999999995       ,  -0.58004861802178032       ,  -0.66434620947870016     
   4.4600000000000000       ,  -0.62957023895105702       ,  -0.71661290719529069     
   4.4799999999999995       ,  -0.67809406389742222       ,  -0.76544067907809932     
   4.5000000000000000       ,  -0.72444239940500221       ,  -0.80968114832196503     
   4.5199999999999996       ,  -0.76741789601036670       ,  -0.84825928324062017     
   4.5400000000000000       ,  -0.80587131763460662       ,  -0.88023501478402011     
   4.5599999999999996       ,  -0.83876605668466986       ,  -0.90485808335788742     
   4.5800000000000001       ,  -0.86523648813186704       ,  -0.92161370770083151     
