r(A) ,   X_ray-calc  ,   X_ray_exp_renorm
   2.0000000000000000E-002  ,  -0.58638881156091072       ,   -2.4408836391626547     
   4.0000000000000001E-002  ,  -0.65499415881016532       ,   -2.4671856075281875     
   5.9999999999999998E-002  ,  -0.76689532538055494       ,   -2.5100956074680338     
   8.0000000000000002E-002  ,  -0.91852384747492710       ,   -2.5682587864265307     
  0.10000000000000001       ,   -1.1050665254094125       ,   -2.6398471190366140     
  0.12000000000000001       ,   -1.3206396806146730       ,   -2.7226250360681945     
  0.13999999999999999       ,   -1.5585015798301194       ,   -2.8140294573850304     
  0.16000000000000000       ,   -1.8112949409113497       ,   -2.9112612033509948     
  0.17999999999999999       ,   -2.0713103066346576       ,   -3.0113843360666306     
  0.19999999999999998       ,   -2.3307603041067027       ,   -3.1114296926601033     
  0.22000000000000000       ,   -2.5820544273224084       ,   -3.2084987285736712     
  0.23999999999999999       ,   -2.8180640031541664       ,   -3.2998637946202423     
  0.26000000000000001       ,   -3.0323674247903782       ,   -3.3830611268696020     
  0.28000000000000003       ,   -3.2194665437622154       ,   -3.4559731266023799     
  0.30000000000000004       ,   -3.3749662695111122       ,   -3.5168969364947973     
  0.32000000000000001       ,   -3.4957108875047171       ,   -3.5645968616075989     
  0.34000000000000002       ,   -3.5798723148669138       ,   -3.5983388179841889     
  0.36000000000000004       ,   -3.6269873984546446       ,   -3.6179056925280562     
  0.38000000000000000       ,   -3.6379433495638946       ,   -3.6235932376129734     
  0.40000000000000002       ,   -3.6149124233987577       ,   -3.6161868734683562     
  0.42000000000000004       ,   -3.5612389107819706       ,   -3.5969205014130261     
  0.44000000000000000       ,   -3.4812833374470320       ,   -3.5674191130414656     
  0.46000000000000002       ,   -3.3802303912234986       ,   -3.5296275881030779     
  0.48000000000000004       ,   -3.2638684564007718       ,   -3.4857285837457153     
  0.50000000000000000       ,   -3.1383496752030600       ,   -3.4380528107018917     
  0.52000000000000002       ,   -3.0099401391259621       ,   -3.3889852533007230     
  0.54000000000000004       ,   -2.8847701127289471       ,   -3.3408710106019344     
  0.56000000000000005       ,   -2.7685940995080807       ,   -3.2959244118090987     
  0.58000000000000007       ,   -2.6665700795004956       ,   -3.2561448925013030     
  0.59999999999999998       ,   -2.5830664024590662       ,   -3.2232428168183831     
  0.62000000000000000       ,   -2.5215036444094179       ,   -3.1985780075031705     
  0.64000000000000001       ,   -2.4842372777627522       ,   -3.1831132183282889     
  0.66000000000000003       ,   -2.4724853255043122       ,   -3.1773841735664927     
  0.68000000000000005       ,   -2.4863033364729348       ,   -3.1814871315495927     
  0.70000000000000007       ,   -2.5246071053668508       ,   -3.1950842308157070     
  0.72000000000000008       ,   -2.5852416446633262       ,   -3.2174261756758544     
  0.73999999999999999       ,   -2.6650930726805737       ,   -3.2473911409193361     
  0.76000000000000001       ,   -2.7602383857862067       ,   -3.2835381492712559     
  0.78000000000000003       ,   -2.8661266002818433       ,   -3.3241726242939675     
  0.80000000000000004       ,   -2.9777835389033815       ,   -3.3674213666478052     
  0.82000000000000006       ,   -3.0900316451246215       ,   -3.4113138599336361     
  0.84000000000000008       ,   -3.1977156694931552       ,   -3.4538665960132011     
  0.85999999999999999       ,   -3.2959249056978885       ,   -3.4931670259219598     
  0.88000000000000000       ,   -3.3802028645739837       ,   -3.5274537931004155     
  0.90000000000000002       ,   -3.4467358512437118       ,   -3.5551900871674342     
  0.92000000000000004       ,   -3.4925128288591609       ,   -3.5751272601865787     
  0.94000000000000006       ,   -3.5154501731590178       ,   -3.5863562599299530     
  0.96000000000000008       ,   -3.5144763945113717       ,   -3.5883449384631838     
  0.97999999999999998       ,   -3.4895735676521737       ,   -3.5809598684940038     
   1.0000000000000000       ,   -3.4417739959087137       ,   -3.5644719208596030     
   1.0200000000000000       ,   -3.3731124736632299       ,   -3.5395454992323971     
   1.0400000000000000       ,   -3.2865363238135812       ,   -3.5072119670307340     
   1.0600000000000001       ,   -3.1857771029920210       ,   -3.4688284115630150     
   1.0800000000000001       ,   -3.0751894175113650       ,   -3.4260234480399254     
   1.1000000000000001       ,   -2.9595636156128844       ,   -3.3806322501123631     
   1.1200000000000001       ,   -2.8439201642234457       ,   -3.3346233861185333     
   1.1400000000000001       ,   -2.7332942402321239       ,   -3.2900203272435085     
   1.1600000000000001       ,   -2.6325194395033167       ,   -3.2488206657060652     
   1.1799999999999999       ,   -2.5460195178486686       ,   -3.2129161330095930     
   1.2000000000000000       ,   -2.4776167280168342       ,   -3.1840164401904425     
   1.2200000000000000       ,   -2.4303646209951282       ,   -3.1635797785902384     
   1.2400000000000000       ,   -2.4064121679599335       ,   -3.1527525301857184     
   1.2600000000000000       ,   -2.4069047730730984       ,   -3.1523203541842384     
   1.2800000000000000       ,   -2.4319262398592421       ,   -3.1626723581248326     
   1.3000000000000000       ,   -2.4804840866586915       ,   -3.1837795464967145     
   1.3200000000000001       ,   -2.5505388473393320       ,   -3.2151881891447172     
   1.3400000000000001       ,   -2.6390762131994792       ,   -3.2560281876853958     
   1.3600000000000001       ,   -2.7422191424756992       ,   -3.3050359630668522     
   1.3800000000000001       ,   -2.8553754544261536       ,   -3.3605908626716774     
   1.4000000000000001       ,   -2.9734149998210326       ,   -3.4207636106854058     
   1.4200000000000002       ,   -3.0908693154069025       ,   -3.4833749180596740     
   1.4399999999999999       ,   -3.2021457731901357       ,   -3.5460620424079896     
   1.4600000000000000       ,   -3.3017476611533887       ,   -3.6063508540820415     
   1.4800000000000000       ,   -3.3844914021552128       ,   -3.6617308290316197     
   1.5000000000000000       ,   -3.4457122402593852       ,   -3.7097303542658775     
   1.5200000000000000       ,   -3.4814501924531474       ,   -3.7479897961021211     
   1.5400000000000000       ,   -3.4886088586753927       ,   -3.7743299392629086     
   1.5600000000000001       ,   -3.4650807713689509       ,   -3.7868136470087435     
   1.5800000000000001       ,   -3.4098343029017704       ,   -3.7837989065018967     
   1.6000000000000001       ,   -3.3229586809509213       ,   -3.7639817945958152     
   1.6200000000000001       ,   -3.2056653265721793       ,   -3.7264283105232718     
   1.6400000000000001       ,   -3.0602454604481073       ,   -3.6705944557331027     
   1.6600000000000001       ,   -2.8899856506644919       ,   -3.5963343793347566     
   1.6800000000000002       ,   -2.6990446317141004       ,   -3.5038968326664950     
   1.7000000000000000       ,   -2.4922962438660798       ,   -3.3939105720439464     
   1.7200000000000000       ,   -2.2751446649510556       ,   -3.2673597002752630     
   1.7400000000000000       ,   -2.0533191815055312       ,   -3.1255502329924165     
   1.7600000000000000       ,   -1.8326565317347121       ,   -2.9700694060555248     
   1.7800000000000000       ,   -1.6188793192463238       ,   -2.8027393992210854     
   1.8000000000000000       ,   -1.4173791271582994       ,   -2.6255672362262925     
   1.8200000000000001       ,   -1.2330127535777873       ,   -2.4406926330493470     
   1.8400000000000001       ,   -1.0699194516314818       ,   -2.2503355081446119     
   1.8600000000000001       ,  -0.93136621320752100       ,   -2.0567447475870582     
   1.8800000000000001       ,  -0.81962702031471568       ,   -1.8621496434242433     
   1.9000000000000001       ,  -0.73590064693109769       ,   -1.6687152062162380     
   1.9200000000000002       ,  -0.68027008145615275       ,   -1.4785023052018242     
   1.9399999999999999       ,  -0.65170501584769613       ,   -1.2934333249595280     
   1.9600000000000000       ,  -0.64810717660594097       ,   -1.1152637591157986     
   1.9800000000000000       ,  -0.66639662071027050       ,  -0.94555990232345244     
   2.0000000000000000       ,  -0.70263555090370466       ,  -0.78568256298339578     
   2.0200000000000000       ,  -0.75218478003184819       ,  -0.63677651094266552     
   2.0400000000000000       ,  -0.80988674797296545       ,  -0.49976520451091255     
   2.0600000000000001       ,  -0.87026801325344594       ,  -0.37535021503295368     
   2.0800000000000001       ,  -0.92775344089791967       ,  -0.26401468777783343     
   2.1000000000000001       ,  -0.97688391320630330       ,  -0.16603014524602092     
   2.1200000000000001       ,   -1.0125293135204048       ,   -8.1465950774679080E-002
   2.1400000000000001       ,   -1.0300887745545491       ,   -1.0200801784619492E-002
   2.1600000000000001       ,   -1.0256707299381567       ,    4.8064293636025004E-002
   2.1800000000000002       ,  -0.99624613580991139       ,    9.3791994302100931E-002
   2.2000000000000002       ,  -0.93976930340075848       ,   0.12759387142299353     
   2.2200000000000002       ,  -0.85526205908095299       ,   0.15021510728191731     
   2.2400000000000002       ,  -0.74285837347045314       ,   0.16251870922630862     
   2.2600000000000002       ,  -0.60380811882217122       ,   0.16546919287442458     
   2.2800000000000002       ,  -0.44044016396160784       ,   0.16011560361118859     
   2.3000000000000003       ,  -0.25608653807735204       ,   0.14757369087673328     
   2.3200000000000003       ,   -5.4970829977649578E-002  ,   0.12900703033996536     
   2.3399999999999999       ,   0.15793471636543258       ,   0.10560690742177607     
   2.3599999999999999       ,   0.37707784418801832       ,    7.8570831966744858E-002
   2.3799999999999999       ,   0.59651422266879317       ,    4.9079645849711806E-002
   2.3999999999999999       ,   0.81010762430723071       ,    1.8273308228964051E-002
   2.4199999999999999       ,    1.0117349463516154       ,   -1.2774409879993329E-002
   2.4399999999999999       ,    1.1954886324833844       ,   -4.3081927795872464E-002
   2.4600000000000000       ,    1.3558692863524198       ,   -7.1785992871745322E-002
   2.4800000000000000       ,    1.4879617742671583       ,   -9.8167231076308814E-002
   2.5000000000000000       ,    1.5875888656711659       ,  -0.12167424382048245     
   2.5200000000000000       ,    1.6514374229978908       ,  -0.14194526884583392     
   2.5400000000000000       ,    1.6771532853265043       ,  -0.15882634609618504     
   2.5600000000000001       ,    1.6634022452281867       ,  -0.17238489995275133     
   2.5800000000000001       ,    1.6098958435976314       ,  -0.18291767371028211     
   2.6000000000000001       ,    1.5173820495970110       ,  -0.19095203493183391     
   2.6200000000000001       ,    1.3876021989530842       ,  -0.19723981277335853     
   2.6400000000000001       ,    1.2232167831008760       ,  -0.20274302894472929     
   2.6600000000000001       ,    1.0277037679173389       ,  -0.20861113803008074     
   2.6800000000000002       ,   0.80523403418028738       ,  -0.21614969279501262     
   2.7000000000000002       ,   0.56052924035136109       ,  -0.22678068546341659     
   2.7200000000000002       ,   0.29870788868718678       ,  -0.24199517395532305     
   2.7400000000000002       ,    2.5125614617107678E-002  ,  -0.26329916803618331     
   2.7600000000000002       ,  -0.25478428654886626       ,  -0.29215410822793680     
   2.7800000000000002       ,  -0.53566432551793097       ,  -0.32991360354373828     
   2.8000000000000003       ,  -0.81237497334214903       ,  -0.37775838611664064     
   2.8200000000000003       ,   -1.0801208628375347       ,  -0.43663167596147506     
   2.8399999999999999       ,   -1.3345572230991709       ,  -0.50717731342453087     
   2.8599999999999999       ,   -1.5718736865005052       ,  -0.58968309865132562     
   2.8799999999999999       ,   -1.7888536442113159       ,  -0.68403176790017695     
   2.8999999999999999       ,   -1.9829084009464830       ,  -0.78966193047499733     
   2.9199999999999999       ,   -2.1520864466059835       ,  -0.90554108601287053     
   2.9399999999999999       ,   -2.2950591773151214       ,   -1.0301525424772908     
   2.9600000000000000       ,   -2.4110853199650033       ,   -1.1614976672349584     
   2.9800000000000000       ,   -2.4999571064018919       ,   -1.2971144377921684     
   3.0000000000000000       ,   -2.5619318759368643       ,   -1.4341127295989566     
   3.0200000000000000       ,   -2.5976532352987141       ,   -1.5692262034967857     
   3.0400000000000000       ,   -2.6080661592363272       ,   -1.6988800552086090     
   3.0600000000000001       ,   -2.5943304670858680       ,   -1.8192732859435323     
   3.0800000000000001       ,   -2.5577369639166130       ,   -1.9264735699289657     
   3.1000000000000001       ,   -2.4996302009865432       ,   -2.0165222548144994     
   3.1200000000000001       ,   -2.4213413086233575       ,   -2.0855465568978819     
   3.1400000000000001       ,   -2.3241337115904384       ,   -2.1298756257048077     
   3.1600000000000001       ,   -2.2091637843928282       ,   -2.1461568696405542     
   3.1800000000000002       ,   -2.0774576778493610       ,   -2.1314687707725568     
   3.2000000000000002       ,   -1.9299046871447458       ,   -2.0834263826846753     
   3.2200000000000002       ,   -1.7672666748349053       ,   -2.0002758064582120     
   3.2400000000000002       ,   -1.5902022483705167       ,   -1.8809741768210801     
   3.2600000000000002       ,   -1.3993036565469008       ,   -1.7252520587991871     
   3.2800000000000002       ,   -1.1951437447486915       ,   -1.5336556450739596     
   3.3000000000000003       ,  -0.97832982142507185       ,   -1.3075667410664287     
   3.3200000000000003       ,  -0.74956095795494104       ,   -1.0491992094543445     
   3.3400000000000003       ,  -0.50968508376546584       ,  -0.76157129550851477     
   3.3599999999999999       ,  -0.25975225339713082       ,  -0.44845404344187551     
   3.3799999999999999       ,   -1.0606495030379723E-003  ,  -0.11429681398879013     
   3.3999999999999999       ,   0.26480776471832745       ,   0.23586830424099392     
   3.4199999999999999       ,   0.53596453573171743       ,   0.59654066127647987     
   3.4399999999999999       ,   0.81020692876562250       ,   0.96188060011392951     
   3.4600000000000000       ,    1.0850263234760069       ,    1.3258506465325852     
   3.4800000000000000       ,    1.3576332949750958       ,    1.6823641412158266     
   3.5000000000000000       ,    1.6249990847075531       ,    2.0254368193521399     
   3.5200000000000000       ,    1.8839123815619889       ,    2.3493366933006756     
   3.5400000000000000       ,    2.1310495946933812       ,    2.6487276037078971     
   3.5600000000000001       ,    2.3630561385293798       ,    2.9188019751343544     
   3.5800000000000001       ,    2.5766356964417030       ,    3.1553986392916058     
   3.6000000000000001       ,    2.7686440068307054       ,    3.3551020620214773     
   3.6200000000000001       ,    2.9361834422821231       ,    3.5153199132581050     
   3.6400000000000001       ,    3.0766945407886981       ,    3.6343366315018004     
   3.6600000000000001       ,    3.1880407025033377       ,    3.7113414306848753     
   3.6800000000000002       ,    3.2685824836106998       ,    3.7464300493038576     
   3.7000000000000002       ,    3.3172382911328819       ,    3.7405804186817324     
   3.7200000000000002       ,    3.3335287926977943       ,    3.6956032974770747     
   3.7400000000000002       ,    3.3176029815339247       ,    3.6140697514764528     
   3.7600000000000002       ,    3.2702445523903263       ,    3.4992181210292816     
   3.7800000000000002       ,    3.1928580182227817       ,    3.3548437854503028     
   3.8000000000000003       ,    3.0874347975022585       ,    3.1851755801310970     
   3.8200000000000003       ,    2.9565002941300440       ,    2.9947431282869381     
   3.8400000000000003       ,    2.8030437429530388       ,    2.7882396008014978     
   3.8599999999999999       ,    2.6304332724619681       ,    2.5703845059365666     
   3.8799999999999999       ,    2.4423192143771026       ,    2.3457910333247369     
   3.8999999999999999       ,    2.2425291438503057       ,    2.1188422374957048     
   3.9199999999999999       ,    2.0349584456942282       ,    1.8935799551444341     
   3.9399999999999999       ,    1.8234603592610743       ,    1.6736098230918091     
   3.9600000000000000       ,    1.6117394517852435       ,    1.4620251211780966     
   3.9800000000000000       ,    1.4032523083863526       ,    1.2613514312220746     
   4.0000000000000000       ,    1.2011189143605212       ,    1.0735133080365240     
   4.0199999999999996       ,    1.0080477559851517       ,   0.89982333187727448     
   4.0400000000000000       ,   0.82627709954788287       ,   0.74099308518647855     
   4.0599999999999996       ,   0.65753424912450276       ,   0.59716480141044070     
   4.0800000000000001       ,   0.50301385985622138       ,   0.46796169992113645     
   4.0999999999999996       ,   0.36337562561795811       ,   0.35255437593202626     
   4.1199999999999992       ,   0.23876089963617661       ,   0.24974008139429521     
   4.1399999999999997       ,   0.12882707518229949       ,   0.15803133124358051     
   4.1599999999999993       ,    3.2797880746614702E-002  ,    7.5750012803856653E-002
   4.1799999999999997       ,   -5.0472842902353390E-002  ,    1.1230726116440437E-003
   4.1999999999999993       ,  -0.12242679455253734       ,   -6.7624093707406449E-002
   4.2199999999999998       ,  -0.18471955517842698       ,  -0.13218022081164024     
   4.2399999999999993       ,  -0.23913509464212315       ,  -0.19407005191738128     
   4.2599999999999998       ,  -0.28749998071992994       ,  -0.25458837795597655     
   4.2799999999999994       ,  -0.33160074688912705       ,  -0.31474852726687969     
   4.2999999999999998       ,  -0.37310765247615230       ,  -0.37524694279521253     
   4.3199999999999994       ,  -0.41350771657068552       ,  -0.43644477796793074     
   4.3399999999999999       ,  -0.45404944249997348       ,  -0.49836671259471838     
   4.3599999999999994       ,  -0.49570109409386048       ,  -0.56071646599942104     
   4.3799999999999999       ,  -0.53912376345397439       ,  -0.62290779530562879     
   4.3999999999999995       ,  -0.58465980989919242       ,  -0.68410913982087029     
   4.4199999999999999       ,  -0.63233657984979696       ,  -0.74329953241762603     
   4.4399999999999995       ,  -0.68188466627669797       ,  -0.79933296653462793     
   4.4600000000000000       ,  -0.73276936138339432       ,  -0.85100809915741882     
   4.4799999999999995       ,  -0.78423342241398863       ,  -0.89713999689695145     
   4.5000000000000000       ,  -0.83534882946115840       ,  -0.93663059945983640     
   4.5199999999999996       ,  -0.88507488313635607       ,  -0.96853468198344128     
   4.5400000000000000       ,  -0.93231978121282133       ,  -0.99211833875361821     
   4.5599999999999996       ,  -0.97600273365072188       ,   -1.0069073741566117     
   4.5800000000000001       ,   -1.0151137258729919       ,   -1.0127234558529110     
