r(A) ,   X_ray-calc  ,   X_ray_exp_renorm
   2.0000000000000000E-002  ,   -6.4293933754342483       ,   -9.9980199181497387     
   4.0000000000000001E-002  ,   -6.3719023442395368       ,   -9.8706887567454462     
   5.9999999999999998E-002  ,   -6.2772682249245468       ,   -9.6619723260196650     
   8.0000000000000002E-002  ,   -6.1472435568656874       ,   -9.3770153159470624     
  0.10000000000000001       ,   -5.9842345387888836       ,   -9.0228067596017141     
  0.12000000000000001       ,   -5.7912545209856505       ,   -8.6079747800221895     
  0.13999999999999999       ,   -5.5718654262416889       ,   -8.1425342047898805     
  0.16000000000000000       ,   -5.3301080180542408       ,   -7.6375951397188153     
  0.17999999999999999       ,   -5.0704221426898908       ,   -7.1050418124782304     
  0.19999999999999998       ,   -4.7975582780707473       ,   -6.5571919014788929     
  0.22000000000000000       ,   -4.5164819239481577       ,   -6.0064471254382328     
  0.23999999999999999       ,   -4.2322725597441444       ,   -5.4649460672602892     
  0.26000000000000001       ,   -3.9500190731347566       ,   -4.9442300374370918     
  0.28000000000000003       ,   -3.6747137173505182       ,   -4.4549322550779564     
  0.30000000000000004       ,   -3.4111467810686564       ,   -4.0064997593159584     
  0.32000000000000001       ,   -3.1638042441558767       ,   -3.6069562922872263     
  0.34000000000000002       ,   -2.9367707379560541       ,   -3.2627129596459459     
  0.36000000000000004       ,   -2.7336401233746734       ,   -2.9784318270690355     
  0.38000000000000000       ,   -2.5574359377031004       ,   -2.7569458098367243     
  0.40000000000000002       ,   -2.4105438373391301       ,   -2.5992363206584423     
  0.42000000000000004       ,   -2.2946579754568619       ,   -2.5044682243738268     
  0.44000000000000000       ,   -2.2107430005453965       ,   -2.4700797731715181     
  0.46000000000000002       ,   -2.1590130452516569       ,   -2.4919234266090191     
  0.48000000000000004       ,   -2.1389286993833956       ,   -2.5644518566979029     
  0.50000000000000000       ,   -2.1492125331544214       ,   -2.6809420528976822     
  0.52000000000000002       ,   -2.1878832662847931       ,   -2.8337493200053987     
  0.54000000000000004       ,   -2.2523081773311113       ,   -3.0145821387902805     
  0.56000000000000005       ,   -2.3392728296803540       ,   -3.2147883589766595     
  0.58000000000000007       ,   -2.4450666717879441       ,   -3.4256430292810438     
  0.59999999999999998       ,   -2.5655825664829162       ,   -3.6386283400688568     
  0.62000000000000000       ,   -2.6964278351313209       ,   -3.8456966493083979     
  0.64000000000000001       ,   -2.8330439847253737       ,   -4.0395083589872565     
  0.66000000000000003       ,   -2.9708319363956535       ,   -4.2136374737436162     
  0.68000000000000005       ,   -3.1052793078177392       ,   -4.3627389638004699     
  0.70000000000000007       ,   -3.2320861327580794       ,   -4.4826735205991843     
  0.72000000000000008       ,   -3.3472853390555439       ,   -4.5705868805119092     
  0.73999999999999999       ,   -3.4473543588161042       ,   -4.6249425409296858     
  0.76000000000000001       ,   -3.5293144148815569       ,   -4.6455083438784239     
  0.78000000000000003       ,   -3.5908143150027558       ,   -4.6332989960609794     
  0.80000000000000004       ,   -3.6301959846285481       ,   -4.5904780749025091     
  0.82000000000000006       ,   -3.6465394715804802       ,   -4.5202243869294634     
  0.84000000000000008       ,   -3.6396857477942199       ,   -4.4265686536623123     
  0.85999999999999999       ,   -3.6102362976903613       ,   -4.3142073655710522     
  0.88000000000000000       ,   -3.5595291992450866       ,   -4.1883012405333471     
  0.90000000000000002       ,   -3.4895921495098086       ,   -4.0542660340357761     
  0.92000000000000004       ,   -3.4030736363673855       ,   -3.9175634692650045     
  0.94000000000000006       ,   -3.3031541869270149       ,   -3.7834997922445663     
  0.96000000000000008       ,   -3.1934403043129937       ,   -3.6570389266902543     
  0.97999999999999998       ,   -3.0778443137814033       ,   -3.5426364313096217     
   1.0000000000000000       ,   -2.9604538530634321       ,   -3.4440994833722613     
   1.0200000000000000       ,   -2.8453951403430069       ,   -3.3644769680902336     
   1.0400000000000000       ,   -2.7366944197097505       ,   -3.3059824905990292     
   1.0600000000000001       ,   -2.6381421060114860       ,   -3.2699517965487650     
   1.0800000000000001       ,   -2.5531641214000813       ,   -3.2568347404654205     
   1.1000000000000001       ,   -2.4847047324588187       ,   -3.2662206296201748     
   1.1200000000000001       ,   -2.4351248630667772       ,   -3.2968945442295183     
   1.1400000000000001       ,   -2.4061193830418328       ,   -3.3469211372293373     
   1.1600000000000001       ,   -2.3986562703408105       ,   -3.4137514875559156     
   1.1799999999999999       ,   -2.4129398342832986       ,   -3.4943478514742066     
   1.2000000000000000       ,   -2.4483993922494243       ,   -3.5853206502825268     
   1.2200000000000000       ,   -2.5037039393986378       ,   -3.6830717638236088     
   1.2400000000000000       ,   -2.5768024695034715       ,   -3.7839381722433143     
   1.2600000000000000       ,   -2.6649887258207485       ,   -3.8843301984134011     
   1.2800000000000000       ,   -2.7649883152216392       ,   -3.9808590362361604     
   1.3000000000000000       ,   -2.8730653369817496       ,   -4.0704488830447261     
   1.3200000000000001       ,   -2.9851449881745813       ,   -4.1504297974186768     
   1.3400000000000001       ,   -3.0969480359996111       ,   -4.2186083407020156     
   1.3600000000000001       ,   -3.2041326151011944       ,   -4.2733140904634661     
   1.3800000000000001       ,   -3.3024385316627223       ,   -4.3134211932649622     
   1.4000000000000001       ,   -3.3878291469523227       ,   -4.3383452074271922     
   1.4200000000000002       ,   -3.4566259762447560       ,   -4.3480165296779125     
   1.4399999999999999       ,   -3.5056313736134879       ,   -4.3428326607207328     
   1.4600000000000000       ,   -3.5322350717061952       ,   -4.3235924059961288     
   1.4800000000000000       ,   -3.5345008949892520       ,   -4.2914157968570263     
   1.5000000000000000       ,   -3.5112306461985394       ,   -4.2476540284146616     
   1.5200000000000000       ,   -3.4620029550783871       ,   -4.1937940254663326     
   1.5400000000000000       ,   -3.3871857480730929       ,   -4.1313623575362666     
   1.5600000000000001       ,   -3.2879219165495428       ,   -4.0618331270733847     
   1.5800000000000001       ,   -3.1660886965425510       ,   -3.9865441587138464     
   1.6000000000000001       ,   -3.0242321913808747       ,   -3.9066253378213949     
   1.6200000000000001       ,   -2.8654793368551044       ,   -3.8229423062594750     
   1.6400000000000001       ,   -2.6934303955652394       ,   -3.7360579519164605     
   1.6600000000000001       ,   -2.5120357443963610       ,   -3.6462132604160709     
   1.6800000000000002       ,   -2.3254612623540578       ,   -3.5533281708964282     
   1.7000000000000000       ,   -2.1379470157748361       ,   -3.4570221329969093     
   1.7200000000000000       ,   -1.9536641603590974       ,   -3.3566531399386421     
   1.7400000000000000       ,   -1.7765750268331715       ,   -3.2513731522333988     
   1.7600000000000000       ,   -1.6103012280323381       ,   -3.1401970646590005     
   1.7800000000000000       ,   -1.4580043249646002       ,   -3.0220817378833047     
   1.8000000000000000       ,   -1.3222831293821775       ,   -2.8960111420436458     
   1.8200000000000001       ,   -1.2050911177846972       ,   -2.7610833625104960     
   1.8400000000000001       ,   -1.1076767090001247       ,   -2.6165951103031162     
   1.8600000000000001       ,   -1.0305483412337473       ,   -2.4621194655165244     
   1.8800000000000001       ,  -0.97346540473563614       ,   -2.2975728578702652     
   1.9000000000000001       ,  -0.93545517516571564       ,   -2.1232677423518780     
   1.9200000000000002       ,  -0.91485498342930804       ,   -1.9399480407029757     
   1.9399999999999999       ,  -0.90937798301896178       ,   -1.7488051653322549     
   1.9600000000000000       ,  -0.91620006701105738       ,   -1.5514732897071668     
   1.9800000000000000       ,  -0.93206477242791785       ,   -1.3500034426565677     
   2.0000000000000000       ,  -0.95340241455680685       ,   -1.1468169447729897     
   2.0200000000000000       ,  -0.97645923824864211       ,  -0.94463963345608326     
   2.0400000000000000       ,  -0.99743207208418183       ,  -0.74641919969728621     
   2.0600000000000001       ,   -1.0126038336141647       ,  -0.55522874707906389     
   2.0800000000000001       ,   -1.0184752625326898       ,  -0.37416034779081020     
   2.1000000000000001       ,   -1.0118884503274495       ,  -0.20621288281337885     
   2.1200000000000001       ,  -0.99013808037489659       ,   -5.4178790974613457E-002
   2.1400000000000001       ,  -0.95106677675719042       ,    7.9465501425238783E-002
   2.1600000000000001       ,  -0.89314156347993390       ,   0.19266075030245669     
   2.1800000000000002       ,  -0.81550913435830108       ,   0.28385319278011861     
   2.2000000000000002       ,  -0.71802840055044237       ,   0.35206594591223578     
   2.2200000000000002       ,  -0.60127958840960383       ,   0.39695009036107359     
   2.2400000000000002       ,  -0.46654997491779931       ,   0.41881279015914880     
   2.2600000000000002       ,  -0.31579714159683375       ,   0.41862068718886142     
   2.2800000000000002       ,  -0.15159137196855102       ,   0.39797778340460255     
   2.3000000000000003       ,    2.2960513712440206E-002  ,   0.35907804660140108     
   2.3200000000000003       ,   0.20430702228553788       ,   0.30463400591579620     
   2.3399999999999999       ,   0.38855623214894869       ,   0.23778359977435470     
   2.3599999999999999       ,   0.57158877703239463       ,   0.16197846120870582     
   2.3799999999999999       ,   0.74917574307404955       ,    8.0857635454433724E-002
   2.3999999999999999       ,   0.91709761016775893       ,   -1.8886112214707327E-003
   2.4199999999999999       ,    1.0712604645867803       ,   -8.2659742750375256E-002
   2.4399999999999999       ,    1.2078059371675149       ,  -0.15808522198025141     
   2.4600000000000000       ,    1.3232116671804346       ,  -0.22515857050347973     
   2.4800000000000000       ,    1.4143795395260859       ,  -0.28135982544495447     
   2.5000000000000000       ,    1.4787094717125819       ,  -0.32476134490419051     
   2.5200000000000000       ,    1.5141571142663881       ,  -0.35411246239090666     
   2.5400000000000000       ,    1.5192744492777317       ,  -0.36889922321489610     
   2.5600000000000001       ,    1.4932329015899344       ,  -0.36937632622457056     
   2.5800000000000001       ,    1.4358291910679588       ,  -0.35656941000407799     
   2.6000000000000001       ,    1.3474747292204736       ,  -0.33224692596006916     
   2.6200000000000001       ,    1.2291698783429472       ,  -0.29886199025944349     
   2.6400000000000001       ,    1.0824648285701062       ,  -0.25946575877721012     
   2.6600000000000001       ,   0.90940919382746865       ,  -0.21759498005679087     
   2.6800000000000002       ,   0.71249267195799437       ,  -0.17713740796285415     
   2.7000000000000002       ,   0.49457925211664744       ,  -0.14217965826571524     
   2.7200000000000002       ,   0.25883748334635220       ,  -0.11684283629204412     
   2.7400000000000002       ,    8.6692460741595503E-003  ,  -0.10511181625034414     
   2.7600000000000002       ,  -0.25236069867399635       ,  -0.11066439408883776     
   2.7800000000000002       ,  -0.52059235725441555       ,  -0.13670664982180691     
   2.8000000000000003       ,  -0.79233364084438795       ,  -0.18582073568585417     
   2.8200000000000003       ,   -1.0639176520389719       ,  -0.25983095552613650     
   2.8399999999999999       ,   -1.3317531787167034       ,  -0.35969342943168586     
   2.8599999999999999       ,   -1.5923678628513001       ,  -0.48541386512958645     
   2.8799999999999999       ,   -1.8424439130477357       ,  -0.63599701092785788     
   2.8999999999999999       ,   -2.0788466036615354       ,  -0.80943027762851494     
   2.9199999999999999       ,   -2.2986461337299038       ,   -1.0027028277792878     
   2.9399999999999999       ,   -2.4991336914900577       ,   -1.2118601828185582     
   2.9600000000000000       ,   -2.6778327740279795       ,   -1.4320931373785459     
   2.9800000000000000       ,   -2.8325069392236002       ,   -1.6578585412062579     
   3.0000000000000000       ,   -2.9611652151255758       ,   -1.8830283577618234     
   3.0200000000000000       ,   -3.0620663606330032       ,   -2.1010623767657353     
   3.0400000000000000       ,   -3.1337230651725054       ,   -2.3051990837076852     
   3.0600000000000001       ,   -3.1749070018186032       ,   -2.4886585048169541     
   3.0800000000000001       ,   -3.1846554190729948       ,   -2.6448503765432236     
   3.1000000000000001       ,   -3.1622796849667205       ,   -2.7675807516848465     
   3.1200000000000001       ,   -3.1073758988991904       ,   -2.8512501589222383     
   3.1400000000000001       ,   -3.0198373784890489       ,   -2.8910366788495430     
   3.1600000000000001       ,   -2.8998685278882133       ,   -2.8830577790234448     
   3.1800000000000002       ,   -2.7479993172801849       ,   -2.8245054459642178     
   3.2000000000000002       ,   -2.5650993662162920       ,   -2.7137500385209719     
   3.2200000000000002       ,   -2.3523904396675310       ,   -2.5504093327334174     
   3.2400000000000002       ,   -2.1114560462304897       ,   -2.3353803957657293     
   3.2600000000000002       ,   -1.8442467807749059       ,   -2.0708331738376642     
   3.2800000000000002       ,   -1.5530800834273153       ,   -1.7601659617696914     
   3.3000000000000003       ,   -1.2406331939259851       ,   -1.4079241941332614     
   3.3200000000000003       ,  -0.90992826208439248       ,   -1.0196852149842954     
   3.3400000000000003       ,  -0.56430882475854305       ,  -0.60191280192718155     
   3.3599999999999999       ,  -0.20740716737498774       ,  -0.16178620178063785     
   3.3799999999999999       ,   0.15689755913015394       ,   0.29299075441794853     
   3.3999999999999999       ,   0.52453021240720610       ,   0.75439427731922415     
   3.4199999999999999       ,   0.89127887455983890       ,    1.2142924127757124     
   3.4399999999999999       ,    1.2528613696333826       ,    1.6646572665085240     
   3.4600000000000000       ,    1.6049976744852557       ,    2.0977709942310669     
   3.4800000000000000       ,    1.9434864868030866       ,    2.5064191912039293     
   3.5000000000000000       ,    2.2642839419916996       ,    2.8840658305419367     
   3.5200000000000000       ,    2.5635822682438847       ,    3.2250046097032175     
   3.5400000000000000       ,    2.8378860472389089       ,    3.5244824417139675     
   3.5600000000000001       ,    3.0840837141696742       ,    3.7787918383327734     
   3.5800000000000001       ,    3.2995119891089533       ,    3.9853300386005412     
   3.6000000000000001       ,    3.4820110821306320       ,    4.1426238971265743     
   3.6200000000000001       ,    3.6299687532246900       ,    4.2503207196499204     
   3.6400000000000001       ,    3.7423516272081496       ,    4.3091463766465559     
   3.6600000000000001       ,    3.8187225523578672       ,    4.3208330984878156     
   3.6800000000000002       ,    3.8592432351283095       ,    4.2880203205368392     
   3.7000000000000002       ,    3.8646618653390639       ,    4.2141327707727827     
   3.7200000000000002       ,    3.8362859480908251       ,    4.1032406489241335     
   3.7400000000000002       ,    3.7759410608301169       ,    3.9599072141637843     
   3.7600000000000002       ,    3.6859167366473797       ,    3.7890293649592284     
   3.7800000000000002       ,    3.5689011188811044       ,    3.5956768541594468     
   3.8000000000000003       ,    3.4279064196463391       ,    3.3849356370895758     
   3.8200000000000003       ,    3.2661875303983812       ,    3.1617605101547395     
   3.8400000000000003       ,    3.0871563632947008       ,    2.9308416791500469     
   3.8599999999999999       ,    2.8942946384976400       ,    2.6964892234095585     
   3.8799999999999999       ,    2.6910678690046810       ,    2.4625386227360622     
   3.8999999999999999       ,    2.4808432294453899       ,    2.2322796215666658     
   3.9199999999999999       ,    2.2668138309773700       ,    2.0084097547516246     
   3.9399999999999999       ,    2.0519316673767545       ,    1.7930128888394181     
   3.9600000000000000       ,    1.8388511578139319       ,    1.5875621790789962     
   3.9800000000000000       ,    1.6298848031165727       ,    1.3929459412928393     
   4.0000000000000000       ,    1.4269720107945205       ,    1.2095141224224719     
   4.0199999999999996       ,    1.2316616480758746       ,    1.0371423530180710     
   4.0400000000000000       ,    1.0451083713565115       ,   0.87531000333860931     
   4.0599999999999996       ,   0.86808227499751367       ,   0.72318826029021910     
   4.0800000000000001       ,   0.70099092220670411       ,   0.57973400693725363     
   4.0999999999999996       ,   0.54391238457712221       ,   0.44378522474476667     
   4.1199999999999992       ,   0.39663754159081821       ,   0.31415374914027383     
   4.1399999999999997       ,   0.25871959131254535       ,   0.18971148281740821     
   4.1599999999999993       ,   0.12952850970817931       ,    6.9466593606537924E-002
   4.1799999999999997       ,    8.3080760335914518E-003  ,   -4.7373225677449761E-002
   4.1999999999999993       ,  -0.10576694084465224       ,  -0.16135270426931780     
   4.2199999999999998       ,  -0.21353576593932655       ,  -0.27273768797848452     
   4.2399999999999993       ,  -0.31580093521900593       ,  -0.38150135006594582     
   4.2599999999999998       ,  -0.41328385869803691       ,  -0.48732790424354333     
   4.2799999999999994       ,  -0.50658821783336150       ,  -0.58963304312363363     
   4.2999999999999998       ,  -0.59617240310443387       ,  -0.68759961421721716     
   4.3199999999999994       ,  -0.68233177372371157       ,  -0.78022641350053834     
   4.3399999999999999       ,  -0.76519107431288180       ,  -0.86638744789332811     
   4.3599999999999994       ,  -0.84470689217910067       ,  -0.94489861235918549     
   4.3799999999999999       ,  -0.92067960259298487       ,   -1.0145884590787562     
   4.3999999999999995       ,  -0.99277384641599276       ,   -1.0743696137764709     
   4.4199999999999999       ,   -1.0605462311514204       ,   -1.1233074202574940     
   4.4399999999999995       ,   -1.1234786573009536       ,   -1.1606825649161969     
   4.4600000000000000       ,   -1.1810154582105399       ,   -1.1860447389586413     
   4.4799999999999995       ,   -1.2326024114438310       ,   -1.1992548225150961     
   4.5000000000000000       ,   -1.2777256375206858       ,   -1.2005136021843488     
   4.5199999999999996       ,   -1.3159484481661974       ,   -1.1903756384876703     
   4.5400000000000000       ,   -1.3469443377775143       ,   -1.1697475560115609     
   4.5599999999999996       ,   -1.3705245217280040       ,   -1.1398707087366708     
   4.5800000000000001       ,   -1.3866587031647215       ,   -1.1022888476516202     
