r(A) ,   X_ray-calc  ,   X_ray_exp_renorm
   2.0000000000000000E-002  ,  -0.56378216220312016       ,   -2.4471690827313441     
   4.0000000000000001E-002  ,  -0.63308665181474766       ,   -2.4735387804778499     
   5.9999999999999998E-002  ,  -0.74612652493821952       ,   -2.5165592766244087     
   8.0000000000000002E-002  ,  -0.89929460570324704       ,   -2.5748722297766662     
  0.10000000000000001       ,   -1.0877256198053249       ,   -2.6466449072762717     
  0.12000000000000001       ,   -1.3054724690554398       ,   -2.7296359831483175     
  0.13999999999999999       ,   -1.5457211048953774       ,   -2.8212757771485939     
  0.16000000000000000       ,   -1.8010358152295340       ,   -2.9187579015605229     
  0.17999999999999999       ,   -2.0636255975740987       ,   -3.0191388582422451     
  0.19999999999999998       ,   -2.3256215141855496       ,   -3.1194418385229303     
  0.22000000000000000       ,   -2.5793545413078256       ,   -3.2167608338928662     
  0.23999999999999999       ,   -2.8176234491957701       ,   -3.3083611712803447     
  0.26000000000000001       ,   -3.0339426802400391       ,   -3.3917727423932575     
  0.28000000000000003       ,   -3.2227610114148919       ,   -3.4648724955496100     
  0.30000000000000004       ,   -3.3796429611980456       ,   -3.5259531884506745     
  0.32000000000000001       ,   -3.5014063829211763       ,   -3.5737759441575760     
  0.34000000000000002       ,   -3.5862114170191370       ,   -3.6076047883969462     
  0.36000000000000004       ,   -3.6335978849960466       ,   -3.6272220489910896     
  0.38000000000000000       ,   -3.6444702223556549       ,   -3.6329242398965209     
  0.40000000000000002       ,   -3.6210310865951718       ,   -3.6254988038538696     
  0.42000000000000004       ,   -3.5666667592795371       ,   -3.6061828195628780     
  0.44000000000000000       ,   -3.4857893103205817       ,   -3.5766054630833621     
  0.46000000000000002       ,   -3.3836421355842483       ,   -3.5387166223640976     
  0.48000000000000004       ,   -3.2660768519805412       ,   -3.4947045750454961     
  0.50000000000000000       ,   -3.1393105843435163       ,   -3.4469060336008148     
  0.52000000000000002       ,   -3.0096733657978834       ,   -3.3977121238581613     
  0.54000000000000004       ,   -2.8833556726189586       ,   -3.3494739836689389     
  0.56000000000000005       ,   -2.7661660160333277       ,   -3.3044116442870055     
  0.58000000000000007       ,   -2.6633080230543715       ,   -3.2645296899758414     
  0.59999999999999998       ,   -2.5791855779367587       ,   -3.2315428891808025     
  0.62000000000000000       ,   -2.5172434014453806       ,   -3.2068145662819858     
  0.64000000000000001       ,   -2.4798489662826930       ,   -3.1913099542093222     
  0.66000000000000003       ,   -2.4682199442322887       ,   -3.1855661567624840     
  0.68000000000000005       ,   -2.4823995230286240       ,   -3.1896796801451193     
  0.70000000000000007       ,   -2.5212799936801065       ,   -3.2033117928788011     
  0.72000000000000008       ,   -2.5826730697958720       ,   -3.2257112697865153     
  0.73999999999999999       ,   -2.6634235369394288       ,   -3.2557533968803427     
  0.76000000000000001       ,   -2.7595611162832170       ,   -3.2919934862696074     
  0.78000000000000003       ,   -2.8664839306356389       ,   -3.3327325978655669     
  0.80000000000000004       ,   -2.9791657409709140       ,   -3.3760927087111754     
  0.82000000000000006       ,   -3.0923782252587340       ,   -3.4200982281917875     
  0.84000000000000008       ,   -3.2009190327973447       ,   -3.4627605404990058     
  0.85999999999999999       ,   -3.2998361860018699       ,   -3.5021621717229170     
  0.88000000000000000       ,   -3.3846396220420978       ,   -3.5365372296895101     
  0.90000000000000002       ,   -3.4514912578560488       ,   -3.5643449466250203     
  0.92000000000000004       ,   -3.4973658980340341       ,   -3.5843334592385312     
  0.94000000000000006       ,   -3.5201765462820331       ,   -3.5955913744300192     
  0.96000000000000008       ,   -3.5188591759506749       ,   -3.5975851739475102     
  0.97999999999999998       ,   -3.4934137018230773       ,   -3.5901810869142650     
   1.0000000000000000       ,   -3.4448997049239396       ,   -3.5736506816785445     
   1.0200000000000000       ,   -3.3753873208599146       ,   -3.5486600727980040     
   1.0400000000000000       ,   -3.2878655348088492       ,   -3.5162432795228633     
   1.0600000000000001       ,   -3.1861118588336894       ,   -3.4777608837548586     
   1.0800000000000001       ,   -3.0745289301696612       ,   -3.4348456945010670     
   1.1000000000000001       ,   -2.9579549001416865       ,   -3.3893376111109985     
   1.1200000000000001       ,   -2.8414555296702702       ,   -3.3432102711219782     
   1.1400000000000001       ,   -2.7301066278894974       ,   -3.2984923562968165     
   1.1600000000000001       ,   -2.6287758375211756       ,   -3.2571866027919039     
   1.1799999999999999       ,   -2.5419127709853901       ,   -3.2211896134496074     
   1.2000000000000000       ,   -2.4733561362877561       ,   -3.1922155019300105     
   1.2200000000000000       ,   -2.4261657777341572       ,   -3.1717262145179248     
   1.2400000000000000       ,   -2.4024865237084327       ,   -3.1608710852026727     
   1.2600000000000000       ,   -2.4034494250542604       ,   -3.1604377963182082     
   1.2800000000000000       ,   -2.4291144369045337       ,   -3.1708164573822915     
   1.3000000000000000       ,   -2.4784569066944986       ,   -3.1919779982186971     
   1.3200000000000001       ,   -2.5493984503256706       ,   -3.2234675202858436     
   1.3400000000000001       ,   -2.6388809991270663       ,   -3.2644126846369916     
   1.3600000000000001       ,   -2.7429810549420761       ,   -3.3135466584171116     
   1.3800000000000001       ,   -2.8570595694308984       ,   -3.3692446157166289     
   1.4000000000000001       ,   -2.9759414313149817       ,   -3.4295723127029119     
   1.4200000000000002       ,   -3.0941173587290183       ,   -3.4923448485081252     
   1.4399999999999999       ,   -3.2059600999025348       ,   -3.5551933965213194     
   1.4600000000000000       ,   -3.3059462789283187       ,   -3.6156374560398485     
   1.4800000000000000       ,   -3.3888750059581336       ,   -3.6711600382410783     
   1.5000000000000000       ,   -3.4500745102678518       ,   -3.7192831655603937     
   1.5200000000000000       ,   -3.4855885433989817       ,   -3.7576411280957696     
   1.5400000000000000       ,   -3.4923351171690422       ,   -3.7840490989402582     
   1.5600000000000001       ,   -3.4682312538332241       ,   -3.7965649530937733     
   1.5800000000000001       ,   -3.4122787875022103       ,   -3.7935424494223802     
   1.6000000000000001       ,   -3.3246078117416502       ,   -3.7736743070875711     
   1.6200000000000001       ,   -3.2064760552619815       ,   -3.7360241202057836     
   1.6400000000000001       ,   -3.0602242179790431       ,   -3.6800464893920974     
   1.6600000000000001       ,   -2.8891890435067271       ,   -3.6055951881798682     
   1.6800000000000002       ,   -2.6975775719667241       ,   -3.5129196084591952     
   1.7000000000000000       ,   -2.4903075428800396       ,   -3.4026501256365460     
   1.7200000000000000       ,   -2.2728202418548138       ,   -3.2757733766526158     
   1.7400000000000000       ,   -2.0508731551814212       ,   -3.1335987402196257     
   1.7600000000000000       ,   -1.8303205720391571       ,   -2.9777175394394075     
   1.7800000000000000       ,   -1.6168907255186207       ,   -2.8099566463068952     
   1.8000000000000000       ,   -1.4159681748310367       ,   -2.6323282527837066     
   1.8200000000000001       ,   -1.2323898992883577       ,   -2.4469775847641326     
   1.8400000000000001       ,   -1.0702630109058495       ,   -2.2561302771455272     
   1.8600000000000001       ,  -0.93281112091309282       ,   -2.0620410070394719     
   1.8800000000000001       ,  -0.82225525222070883       ,   -1.8669448070741639     
   1.9000000000000001       ,  -0.73973382166423607       ,   -1.6730122628610538     
   1.9200000000000002       ,  -0.68526467790802092       ,   -1.4823095505192254     
   1.9399999999999999       ,  -0.65775053483898749       ,   -1.2967640048999631     
   1.9600000000000000       ,  -0.65502745153797526       ,   -1.1181356401467728     
   1.9800000000000000       ,  -0.67395434510067287       ,  -0.94799478422913330     
   2.0000000000000000       ,  -0.71053994684175337       ,  -0.78770574972335428     
   2.0200000000000000       ,  -0.76010218685993003       ,  -0.63841625433771321     
   2.0400000000000000       ,  -0.81745377123519847       ,  -0.50105213435064277     
   2.0600000000000001       ,  -0.87710674638342556       ,  -0.37631676770151695     
   2.0800000000000001       ,  -0.93348816210868935       ,  -0.26469454379174073     
   2.1000000000000001       ,  -0.98115857283371333       ,  -0.16645768431093233     
   2.1200000000000001       ,   -1.0150250670287793       ,   -8.1675731211627522E-002
   2.1400000000000001       ,   -1.0305407868476650       ,   -1.0227069552137737E-002
   2.1600000000000001       ,   -1.0238834796063532       ,    4.8188062504180389E-002
   2.1800000000000002       ,  -0.99210648422342729       ,    9.4033515150502747E-002
   2.2000000000000002       ,  -0.93325666247004646       ,   0.12792243443422127     
   2.2200000000000002       ,  -0.84645509098938621       ,   0.15060192153427923     
   2.2400000000000002       ,  -0.73193778234947482       ,   0.16293720610150120     
   2.2600000000000002       ,  -0.59105524356789119       ,   0.16589528744832471     
   2.2800000000000002       ,  -0.42623124751952829       ,   0.16052791232382763     
   2.3000000000000003       ,  -0.24088272504737782       ,   0.14795370329983557     
   2.3200000000000003       ,   -3.9304124235325900E-002  ,   0.12933923233278308     
   2.3399999999999999       ,   0.17347912654970918       ,   0.10587885248561003     
   2.3599999999999999       ,   0.39188232169437270       ,    7.8773157273264338E-002
   2.3799999999999999       ,   0.60995176003742702       ,    4.9206029319783920E-002
   2.3999999999999999       ,   0.82156642659919810       ,    1.8320363256841506E-002
   2.4199999999999999       ,    1.0206435893589643       ,   -1.2807304865700862E-002
   2.4399999999999999       ,    1.2013408118683198       ,   -4.3192866728661662E-002
   2.4600000000000000       ,    1.3582471559622409       ,   -7.1970846750061490E-002
   2.4800000000000000       ,    1.4865568942587395       ,   -9.8420018460895611E-002
   2.5000000000000000       ,    1.5822198432450809       ,  -0.12198756338272056     
   2.5200000000000000       ,    1.6420634289428491       ,  -0.14231078769436001     
   2.5400000000000000       ,    1.6638827650947408       ,  -0.15923533488188202     
   2.5600000000000001       ,    1.6464963093156912       ,  -0.17282880294892974     
   2.5800000000000001       ,    1.5897660126936024       ,  -0.18338869932468474     
   2.6000000000000001       ,    1.4945822383022236       ,  -0.19144374958001853     
   2.6200000000000001       ,    1.3628150400230525       ,  -0.19774771888276699     
   2.6400000000000001       ,    1.1972346137888656       ,  -0.20326510621499785     
   2.6600000000000001       ,    1.0014048125099184       ,  -0.20914832608560721     
   2.6800000000000002       ,   0.77955451379950402       ,  -0.21670629314852996     
   2.7000000000000002       ,   0.53643231457567964       ,  -0.22736466135562175     
   2.7200000000000002       ,   0.27715047634117668       ,  -0.24261832820380380     
   2.7400000000000002       ,    7.0242471055002960E-003  ,  -0.26397718153745042     
   2.7600000000000002       ,  -0.26858736148493367       ,  -0.29290642518855092     
   2.7800000000000002       ,  -0.54443355197184051       ,  -0.33076315380674404     
   2.8000000000000003       ,  -0.81551119616021617       ,  -0.37873113999168806     
   2.8200000000000003       ,   -1.0771871985623840       ,  -0.43775603261474827     
   2.8399999999999999       ,   -1.3253000706183775       ,  -0.50848332995547174     
   2.8599999999999999       ,   -1.5562380116647774       ,  -0.59120157326458256     
   2.8799999999999999       ,   -1.7669918640910351       ,  -0.68579319683818341     
   2.8999999999999999       ,   -1.9551824128558342       ,  -0.79169536436045918     
   2.9199999999999999       ,   -2.1190625866202759       ,  -0.90787291670891146     
   2.9399999999999999       ,   -2.2574961439613128       ,   -1.0328052562605272     
   2.9600000000000000       ,   -2.3699153517729252       ,   -1.1644886037652529     
   2.9800000000000000       ,   -2.4562609475913986       ,   -1.3004545968518080     
   3.0000000000000000       ,   -2.5169082934047955       ,   -1.4378056687003575     
   3.0200000000000000       ,   -2.5525840535380460       ,   -1.5732670691039523     
   3.0400000000000000       ,   -2.5642779500414532       ,   -1.7032547884181974     
   3.0600000000000001       ,   -2.5531541612540605       ,   -1.8239580400183906     
   3.0800000000000001       ,   -2.5204667374924470       ,   -1.9314343721221066     
   3.1000000000000001       ,   -2.4674830254377960       ,   -2.0217149385763484     
   3.1200000000000001       ,   -2.3954185410231505       ,   -2.0909169829939631     
   3.1400000000000001       ,   -2.3053860376434230       ,   -2.1353602022077198     
   3.1600000000000001       ,   -2.1983607161035792       ,   -2.1516833714685188     
   3.1800000000000002       ,   -2.0751626527264060       ,   -2.1369574497337998     
   3.2000000000000002       ,   -1.9364566226711353       ,   -2.0887913491860588     
   3.2200000000000002       ,   -1.7827686075836342       ,   -2.0054266544960240     
   3.2400000000000002       ,   -1.6145174398606827       ,   -1.8858178149416696     
   3.2600000000000002       ,   -1.4320592868618292       ,   -1.7296947017352786     
   3.2800000000000002       ,   -1.2357420497356721       ,   -1.5376049140420702     
   3.3000000000000003       ,   -1.0259662697914533       ,   -1.3109338155272530     
   3.3200000000000003       ,  -0.80324882037086276       ,   -1.0519009697175259     
   3.3400000000000003       ,  -0.56828552619542472       ,  -0.76353239407325191     
   3.3599999999999999       ,  -0.32200889939301031       ,  -0.44960884350607339     
   3.3799999999999999       ,   -6.5637407938937145E-002  ,  -0.11459113616084336     
   3.3999999999999999       ,   0.19928691366950554       ,   0.23647568137776634     
   3.4199999999999999       ,   0.47087515906048172       ,   0.59807679458604157     
   3.4399999999999999       ,   0.74688453170168989       ,   0.96435750894105710     
   3.4600000000000000       ,    1.0247288369795780       ,    1.3292648033099028     
   3.4800000000000000       ,    1.3015068912193533       ,    1.6866963448087950     
   3.5000000000000000       ,    1.5740484158718753       ,    2.0306524587319634     
   3.5200000000000000       ,    1.8389761624473893       ,    2.3553863971753994     
   3.5400000000000000       ,    2.0927822432259471       ,    2.6555482598075248     
   3.5600000000000001       ,    2.3319159582079863       ,    2.9263180913508489     
   3.5800000000000001       ,    2.5528798401305668       ,    3.1635240082218470     
   3.6000000000000001       ,    2.7523302114026924       ,    3.3637416810265290     
   3.6200000000000001       ,    2.9271782780169766       ,    3.5243721042704772     
   3.6400000000000001       ,    3.0746876874036331       ,    3.6436952987649236     
   3.6600000000000001       ,    3.1925645539164687       ,    3.7208983906121875     
   3.6800000000000002       ,    3.2790362037426357       ,    3.7560773648420205     
   3.7000000000000002       ,    3.3329152997317366       ,    3.7502126710179540     
   3.7200000000000002       ,    3.3536465583410302       ,    3.7051197306268842     
   3.7400000000000002       ,    3.3413339419594661       ,    3.6233762301269490     
   3.7600000000000002       ,    3.2967469716989153       ,    3.5082288488171125     
   3.7800000000000002       ,    3.2213056260007975       ,    3.3634827393753861     
   3.8000000000000003       ,    3.1170441344588284       ,    3.1933776267358867     
   3.8200000000000003       ,    2.9865548086396236       ,    3.0024547982057976     
   3.8400000000000003       ,    2.8329138376128395       ,    2.7954195099072163     
   3.8599999999999999       ,    2.6595916827660639       ,    2.5770034231609209     
   3.8799999999999999       ,    2.4703513051851917       ,    2.3518316068806966     
   3.8999999999999999       ,    2.2691379250727062       ,    2.1242984022636833     
   3.9199999999999999       ,    2.0599643277251567       ,    1.8984560540128523     
   3.9399999999999999       ,    1.8467958823398645       ,    1.6779194837123608     
   3.9600000000000000       ,    1.6334394231450056       ,    1.4657899366112173     
   3.9800000000000000       ,    1.4234399589194837       ,    1.2645994980754178     
   4.0000000000000000       ,    1.2199888357192454       ,    1.0762776787790045     
   4.0199999999999996       ,    1.0258464939120042       ,   0.90214043896241392     
   4.0400000000000000       ,   0.84328235561801423       ,   0.74290119344162109     
   4.0599999999999996       ,   0.67403367841255790       ,   0.59870254192385597     
   4.0800000000000001       ,   0.51928444544720975       ,   0.46916673354501348     
   4.0999999999999996       ,   0.37966456321542263       ,   0.35346222774407554     
   4.1199999999999992       ,   0.25526883930213357       ,   0.25038317931312198     
   4.1399999999999997       ,   0.14569444654469355       ,   0.15843827281124867     
   4.1599999999999993       ,    5.0094878275340954E-002  ,    7.5945074306653024E-002
   4.1799999999999997       ,   -3.2752210135687229E-002  ,    1.1259646010083754E-003
   4.1999999999999993       ,  -0.10436637140946232       ,   -6.7798230408583848E-002
   4.2199999999999998       ,  -0.16647840426873695       ,  -0.13252059398858262     
   4.2399999999999993       ,  -0.22094072541529122       ,  -0.19456979567416183     
   4.2599999999999998       ,  -0.26963779755180145       ,  -0.25524396057253890     
   4.2799999999999994       ,  -0.31440023667998129       ,  -0.31555902641346856     
   4.2999999999999998       ,  -0.35692597527090675       ,  -0.37621322953064729     
   4.3199999999999994       ,  -0.39871147606688567       ,  -0.43756865334599165     
   4.3399999999999999       ,  -0.44099549245911190       ,  -0.49965004122139633     
   4.3599999999999994       ,  -0.48471727850290247       ,  -0.56216034953754968     
   4.3799999999999999       ,  -0.53049049125338299       ,  -0.62451182580223752     
   4.3999999999999995       ,  -0.57859332928241825       ,  -0.68587076799690405     
   4.4199999999999999       ,  -0.62897474423920718       ,  -0.74521357993332282     
   4.4399999999999995       ,  -0.68127587731680861       ,  -0.80139130400436087     
   4.4600000000000000       ,  -0.73486523827934680       ,  -0.85319950365451580     
   4.4799999999999995       ,  -0.78888558748974158       ,  -0.89945019420961170     
   4.5000000000000000       ,  -0.84231002367417418       ,  -0.93904248779533772     
   4.5199999999999996       ,  -0.89400443988403377       ,  -0.97102872552990616     
   4.5400000000000000       ,  -0.94279329987709293       ,  -0.99467311184138285     
   4.5599999999999996       ,  -0.98752561376066328       ,   -1.0095002300296305     
   4.5800000000000001       ,   -1.0271380560431957       ,   -1.0153312885370760     
