r(A) ,   X_ray-calc  ,   X_ray_exp_renorm
   2.0000000000000000E-002  ,   -5.4820515013045679       ,   -7.8527611594657278     
   4.0000000000000001E-002  ,   -5.4395368611061112       ,   -7.7527512368159304     
   5.9999999999999998E-002  ,   -5.3695903381992798       ,   -7.5888187487869354     
   8.0000000000000002E-002  ,   -5.2735585829675324       ,   -7.3650044976517242     
  0.10000000000000001       ,   -5.1532869821491305       ,   -7.0867978911045810     
  0.12000000000000001       ,   -5.0110806808430590       ,   -6.7609757299551738     
  0.13999999999999999       ,   -4.8496558048314018       ,   -6.3954039766334345     
  0.16000000000000000       ,   -4.6720818606775323       ,   -5.9988088597454494     
  0.17999999999999999       ,   -4.4817164798145424       ,   -5.5805246276939258     
  0.19999999999999998       ,   -4.2821338439668111       ,   -5.1502259748074133     
  0.22000000000000000       ,   -4.0770482791713807       ,   -4.7176536033301701     
  0.23999999999999999       ,   -3.8702346307582496       ,   -4.2923415403135676     
  0.26000000000000001       ,   -3.6654471283178336       ,   -3.8833546961601768     
  0.28000000000000003       ,   -3.4663385144906593       ,   -3.4990447375705358     
  0.30000000000000004       ,   -3.2763812412005953       ,   -3.1468316679636703     
  0.32000000000000001       ,   -3.0987925289986213       ,   -2.8330175882671642     
  0.34000000000000002       ,   -2.9364650373709806       ,   -2.5626379836953461     
  0.36000000000000004       ,   -2.7919048048388939       ,   -2.3393545881285545     
  0.38000000000000000       ,   -2.6671779870053074       ,   -2.1653924628552006     
  0.40000000000000002       ,   -2.5638677490215902       ,   -2.0415224404670491     
  0.42000000000000004       ,   -2.4830424580594248       ,   -1.9670885793872785     
  0.44000000000000000       ,   -2.4252360743453489       ,   -1.9400788018366808     
  0.46000000000000002       ,   -2.3904413604958292       ,   -1.9572354983324984     
  0.48000000000000004       ,   -2.3781162239025226       ,   -2.0142016219671484     
  0.50000000000000000       ,   -2.3872031825822355       ,   -2.1056967075606026     
  0.52000000000000002       ,   -2.4161616091247176       ,   -2.2257163696388167     
  0.54000000000000004       ,   -2.4630120689362869       ,   -2.3677481866721855     
  0.56000000000000005       ,   -2.5253917373457364       ,   -2.5249964860988579     
  0.58000000000000007       ,   -2.6006195651506978       ,   -2.6906084151421679     
  0.59999999999999998       ,   -2.6857695737505991       ,   -2.8578938166300256     
  0.62000000000000000       ,   -2.7777504087737555       ,   -3.0205318179007241     
  0.64000000000000001       ,   -2.8733890740767603       ,   -3.1727576664662918     
  0.66000000000000003       ,   -2.9695166142102241       ,   -3.3095241822649464     
  0.68000000000000005       ,   -3.0630534196203705       ,   -3.4266332098046317     
  0.70000000000000007       ,   -3.1510918000844490       ,   -3.5208336051846181     
  0.72000000000000008       ,   -3.2309735113556246       ,   -3.5898835394488562     
  0.73999999999999999       ,   -3.3003600288218111       ,   -3.6325761948366462     
  0.76000000000000001       ,   -3.3572935390247656       ,   -3.6487292271301603     
  0.78000000000000003       ,   -3.4002468617054817       ,   -3.6391396190769507     
  0.80000000000000004       ,   -3.4281608159289685       ,   -3.6055067128376517     
  0.82000000000000006       ,   -3.4404678959165218       ,   -3.5503272436287072     
  0.84000000000000008       ,   -3.4371015156278455       ,   -3.4767670676556159     
  0.85999999999999999       ,   -3.4184905043417553       ,   -3.3885149571203255     
  0.88000000000000000       ,   -3.3855389755915155       ,   -3.2896243031179173     
  0.90000000000000002       ,   -3.3395921349938842       ,   -3.1843488113503553     
  0.92000000000000004       ,   -3.2823890244752971       ,   -3.0769782920055686     
  0.94000000000000006       ,   -3.2160036068707920       ,   -2.9716804385886006     
  0.96000000000000008       ,   -3.1427759621141251       ,   -2.8723540738336584     
  0.97999999999999998       ,   -3.0652356815449791       ,   -2.7824987345139061     
   1.0000000000000000       ,   -2.9860197990456863       ,   -2.7051046981077453     
   1.0200000000000000       ,   -2.9077877775460306       ,   -2.6425666555208700     
   1.0400000000000000       ,   -2.8331361699872417       ,   -2.5966232422603794     
   1.0600000000000001       ,   -2.7645155908191215       ,   -2.5683235952199812     
   1.0800000000000001       ,   -2.7041525660463495       ,   -2.5580210443768054     
   1.1000000000000001       ,   -2.6539786781927583       ,   -2.5653930186682055     
   1.1200000000000001       ,   -2.6155691916944042       ,   -2.5894852816587757     
   1.1400000000000001       ,   -2.5900930413439958       ,   -2.6287777505341605     
   1.1600000000000001       ,   -2.5782757012667608       ,   -2.6812684220485621     
   1.1799999999999999       ,   -2.5803760365488961       ,   -2.7445713561648257     
   1.2000000000000000       ,   -2.5961777879642547       ,   -2.8160242705317007     
   1.2200000000000000       ,   -2.6249958675244200       ,   -2.8928010877409220     
   1.2400000000000000       ,   -2.6656971649130194       ,   -2.9720247561090134     
   1.2600000000000000       ,   -2.7167350986104708       ,   -3.0508758296498253     
   1.2800000000000000       ,   -2.7761967066768802       ,   -3.1266926328397120     
   1.3000000000000000       ,   -2.8418606758143889       ,   -3.1970593329523669     
   1.3200000000000001       ,   -2.9112643670601130       ,   -3.2598788735250110     
   1.3400000000000001       ,   -2.9817776238556224       ,   -3.3134284584415652     
   1.3600000000000001       ,   -3.0506809524598104       ,   -3.3563960850759469     
   1.3800000000000001       ,   -3.1152455521051552       ,   -3.3878974725183291     
   1.4000000000000001       ,   -3.1728126463197488       ,   -3.4074735817833077     
   1.4200000000000002       ,   -3.2208696276847815       ,   -3.4150697442587661     
   1.4399999999999999       ,   -3.2571206730612783       ,   -3.4109981695733822     
   1.4600000000000000       ,   -3.2795497090594798       ,   -3.3958862647925843     
   1.4800000000000000       ,   -3.2864738994957743       ,   -3.3706137379763330     
   1.5000000000000000       ,   -3.2765861765742286       ,   -3.3362418605138875     
   1.5200000000000000       ,   -3.2489857323001612       ,   -3.2939385101841334     
   1.5400000000000000       ,   -3.2031958114104331       ,   -3.2449027029887607     
   1.5600000000000001       ,   -3.1391685861661722       ,   -3.1902922456285689     
   1.5800000000000001       ,   -3.0572773306183492       ,   -3.1311579078986798     
   1.6000000000000001       ,   -2.9582965316083070       ,   -3.0683871375109089     
   1.6200000000000001       ,   -2.8433709608548963       ,   -3.0026598369718434     
   1.6400000000000001       ,   -2.7139750734843462       ,   -2.9344181162375698     
   1.6600000000000001       ,   -2.5718643817010349       ,   -2.8638512530412208     
   1.6800000000000002       ,   -2.4190206687609415       ,   -2.7908963650489262     
   1.7000000000000000       ,   -2.2575930514826892       ,   -2.7152545559676602     
   1.7200000000000000       ,   -2.0898369656215903       ,   -2.6364215733615897     
   1.7400000000000000       ,   -1.9180531369775815       ,   -2.5537313401865229     
   1.7600000000000000       ,   -1.7445285145566634       ,   -2.4664101236343594     
   1.7800000000000000       ,   -1.5714809857808067       ,   -2.3736386090709605     
   1.8000000000000000       ,   -1.4010094755913669       ,   -2.2746187744971973     
   1.8200000000000001       ,   -1.2350507615306481       ,   -2.1686422276284087     
   1.8400000000000001       ,   -1.0753440275586741       ,   -2.0551565830485790     
   1.8600000000000001       ,  -0.92340384381929830       ,   -1.9338265243575115     
   1.8800000000000001       ,  -0.78050191191555651       ,   -1.8045864128129527     
   1.9000000000000001       ,  -0.64765756975410604       ,   -1.6676816604475175     
   1.9200000000000002       ,  -0.52563672051236354       ,   -1.5236965669331455     
   1.9399999999999999       ,  -0.41495854962057560       ,   -1.3735669052693416     
   1.9600000000000000       ,  -0.31590913317790620       ,   -1.2185762069991597     
   1.9800000000000000       ,  -0.22856083032471119       ,   -1.0603354150549051     
   2.0000000000000000       ,  -0.15279619784342519       ,  -0.90074631123530524     
   2.0200000000000000       ,   -8.8335072149968136E-002  ,  -0.74194985447365203     
   2.0400000000000000       ,   -3.4763433632871613E-002  ,  -0.58626125453319544     
   2.0600000000000001       ,    8.4372999937437632E-003  ,  -0.43609422419396232     
   2.0800000000000001       ,    4.1861814696416186E-002  ,  -0.29387737477998671     
   2.1000000000000001       ,    6.6154396780509897E-002  ,  -0.16196612229174662     
   2.1200000000000001       ,    8.1985320588795055E-002  ,   -4.2553736531362345E-002
   2.1400000000000001       ,    9.0030842964891472E-002  ,    6.2414718936173820E-002
   2.1600000000000001       ,    9.0957278144128462E-002  ,   0.15132184865747314     
   2.1800000000000002       ,    8.5409374411109337E-002  ,   0.22294727811130063     
   2.2000000000000002       ,    7.4002963638963568E-002  ,   0.27652373252541068     
   2.2200000000000002       ,    5.7321618722787696E-002  ,   0.31177715961289248     
   2.2400000000000002       ,    3.5916843087538022E-002  ,   0.32894881572289120     
   2.2600000000000002       ,    1.0311140662050983E-002  ,   0.32879793197230450     
   2.2800000000000002       ,   -1.8996818068301124E-002  ,   0.31258434224326792     
   2.3000000000000003       ,   -5.1525802281178333E-002  ,   0.28203125825439829     
   2.3200000000000003       ,   -8.6805299415288140E-002  ,   0.23926918620809548     
   2.3399999999999999       ,  -0.12436934496447245       ,   0.18676276222217772     
   2.3599999999999999       ,  -0.16375170970428385       ,   0.12722300808189899     
   2.3799999999999999       ,  -0.20448313096308221       ,    6.3508145046816705E-002
   2.3999999999999999       ,  -0.24609111442801962       ,   -1.4833750049220874E-003
   2.4199999999999999       ,  -0.28810264089609261       ,   -6.4923577131830834E-002
   2.4399999999999999       ,  -0.33004989847346483       ,  -0.12416513481819247     
   2.4600000000000000       ,  -0.37147893625042694       ,  -0.17684666480418093     
   2.4800000000000000       ,  -0.41196091229160336       ,  -0.22098890852150679     
   2.5000000000000000       ,  -0.45110539878620071       ,  -0.25507783503510373     
   2.5200000000000000       ,  -0.48857502179284440       ,  -0.27813113131511896     
   2.5400000000000000       ,  -0.52410056252706572       ,  -0.28974512108744810     
   2.5600000000000001       ,  -0.55749554036639537       ,  -0.29011985288575493     
   2.5800000000000001       ,  -0.58866924149697430       ,  -0.28006089570301834     
   2.6000000000000001       ,  -0.61763715587972401       ,  -0.26095724722400387     
   2.6200000000000001       ,  -0.64452784088591764       ,  -0.23473566249749028     
   2.6400000000000001       ,  -0.66958534175379414       ,  -0.20379261587969003     
   2.6600000000000001       ,  -0.69316646345002986       ,  -0.17090598157168982     
   2.6800000000000002       ,  -0.71573239948417056       ,  -0.13912932445893364     
   2.7000000000000002       ,  -0.73783447225151477       ,  -0.11167240185912151     
   2.7200000000000002       ,  -0.76009401607153149       ,   -9.1772060278689560E-002
   2.7400000000000002       ,  -0.78317672615090217       ,   -8.2558145993807466E-002
   2.7600000000000002       ,  -0.80776209105654251       ,   -8.6919316299727600E-002
   2.7800000000000002       ,  -0.83450880924735493       ,  -0.10737372787311242     
   2.8000000000000003       ,  -0.86401734818645370       ,  -0.14594948477430794     
   2.8200000000000003       ,  -0.89679102464048921       ,  -0.20407945296033295     
   2.8399999999999999       ,  -0.93319715535846626       ,  -0.28251459939868728     
   2.8599999999999999       ,  -0.97342993863069294       ,  -0.38125940711880291     
   2.8799999999999999       ,   -1.0174767717835920       ,  -0.49953217395418503     
   2.8999999999999999       ,   -1.0650896826794511       ,  -0.63575214867476193     
   2.9199999999999999       ,   -1.1157634529324658       ,  -0.78755452428912809     
   2.9399999999999999       ,   -1.1687218381039592       ,  -0.95183332822382993     
   2.9600000000000000       ,   -1.2229130500109993       ,   -1.1248112584301448     
   2.9800000000000000       ,   -1.2770153659008268       ,   -1.3021345493260732     
   3.0000000000000000       ,   -1.3294533788092260       ,   -1.4789900471353632     
   3.0200000000000000       ,   -1.3784250155411921       ,   -1.6502408637863655     
   3.0400000000000000       ,   -1.4219390379280548       ,   -1.8105762918629729     
   3.0600000000000001       ,   -1.4578623252359377       ,   -1.9546711254619387     
   3.0800000000000001       ,   -1.4839758274730421       ,   -2.0773491630891421     
   3.1000000000000001       ,   -1.4980376975786129       ,   -2.1737454826493008     
   3.1200000000000001       ,   -1.4978517711614818       ,   -2.2394620822128375     
   3.1400000000000001       ,   -1.4813392803787611       ,   -2.2707116737232802     
   3.1600000000000001       ,   -1.4466114765660487       ,   -2.2644447933647092     
   3.1800000000000002       ,   -1.3920407047152716       ,   -2.2184559385106684     
   3.2000000000000002       ,   -1.3163274292532612       ,   -2.1314651374429228     
   3.2200000000000002       ,   -1.2185607588925300       ,   -2.0031721793703201     
   3.2400000000000002       ,   -1.0982701591556412       ,   -1.8342816492248715     
   3.2600000000000002       ,  -0.95546627143940643       ,   -1.6264978914199837     
   3.2800000000000002       ,  -0.79066907054487801       ,   -1.3824900342223601     
   3.3000000000000003       ,  -0.60492197845548790       ,   -1.1058282057521478     
   3.3200000000000003       ,  -0.39979099778882748       ,  -0.80089302848598420     
   3.3400000000000003       ,  -0.17734841822501460       ,  -0.47276135785431517     
   3.3599999999999999       ,    5.9858834189321211E-002  ,  -0.12707200144442143     
   3.3799999999999999       ,   0.30885561046288734       ,   0.23012420811436210     
   3.3999999999999999       ,   0.56629860739724613       ,   0.59252513281169239     
   3.4199999999999999       ,   0.82854850192033758       ,   0.95374367858268017     
   3.4399999999999999       ,    1.0917521279707338       ,    1.3074744832754539     
   3.4600000000000000       ,    1.3519323051720178       ,    1.6476557078114042     
   3.4800000000000000       ,    1.6050826407371723       ,    1.9686209304600168     
   3.5000000000000000       ,    1.8472644295662286       ,    2.2652365489199049     
   3.5200000000000000       ,    2.0747026803875430       ,    2.5330206526395984     
   3.5400000000000000       ,    2.2838783023823255       ,    2.7682400167324674     
   3.5600000000000001       ,    2.4716135974644931       ,    2.9679826626367873     
   3.5800000000000001       ,    2.6351484147692581       ,    3.1302042995495527     
   3.6000000000000001       ,    2.7722046286189586       ,    3.2537478724737721     
   3.6200000000000001       ,    2.8810369884129634       ,    3.3383363641784096     
   3.6400000000000001       ,    2.9604688445146503       ,    3.3845398963002697     
   3.6600000000000001       ,    3.0099117616540791       ,    3.3937190173770269     
   3.6800000000000002       ,    3.0293685720259154       ,    3.3679468234489232     
   3.7000000000000002       ,    3.0194199742795838       ,    3.3099132042217816     
   3.7200000000000002       ,    2.9811953316227187       ,    3.2228150233346837     
   3.7400000000000002       ,    2.9163288422404441       ,    3.1102364089136811     
   3.7600000000000002       ,    2.8269027292001008       ,    2.9760235399424313     
   3.7800000000000002       ,    2.7153795078015928       ,    2.8241583607045513     
   3.8000000000000003       ,    2.5845257212598596       ,    2.6586355414210425     
   3.8200000000000003       ,    2.4373297790197164       ,    2.4833467359475438     
   3.8400000000000003       ,    2.2769166777342349       ,    2.3019757803035126     
   3.8599999999999999       ,    2.1064624286033236       ,    2.1179079471595181     
   3.8799999999999999       ,    1.9291109559246669       ,    1.9341557436989651     
   3.8999999999999999       ,    1.7478960738440876       ,    1.7533030392831661     
   3.9199999999999999       ,    1.5656708986734438       ,    1.5774685631276852     
   3.9399999999999999       ,    1.3850467235036856       ,    1.4082890499487348     
   3.9600000000000000       ,    1.2083429839303561       ,    1.2469215624862893     
   3.9800000000000000       ,    1.0375494947375479       ,    1.0940638120917188     
   4.0000000000000000       ,   0.87430165535822935       ,   0.94999065816446127     
   4.0199999999999996       ,   0.71986882591652690       ,   0.81460441700384523     
   4.0400000000000000       ,   0.57515558503551634       ,   0.68749616953966775     
   4.0599999999999996       ,   0.44071511426544557       ,   0.56801493974614925     
   4.0800000000000001       ,   0.31677352963304928       ,   0.45534143058006638     
   4.0999999999999996       ,   0.20326361419832895       ,   0.34856295592031639     
   4.1199999999999992       ,    9.9866109866362601E-002  ,   0.24674629372070980     
   4.1399999999999997       ,    6.0565122407743067E-003  ,   0.14900540066626430     
   4.1599999999999993       ,   -7.8844814189954773E-002  ,    5.4561260391523987E-002
   4.1799999999999997       ,  -0.15562141863228024       ,   -3.7208430233586422E-002
   4.1999999999999993       ,  -0.22511060731349947       ,  -0.12673151878410593     
   4.2199999999999998       ,  -0.28815636917003973       ,  -0.21421680896953876     
   4.2399999999999993       ,  -0.34556718561888911       ,  -0.29964323022033101     
   4.2599999999999998       ,  -0.39808023851348345       ,  -0.38276275399496718     
   4.2799999999999994       ,  -0.44633318845915171       ,  -0.46311644678496872     
   4.2999999999999998       ,  -0.49084431487571628       ,  -0.54006249117253591     
   4.3199999999999994       ,  -0.53200140635177506       ,  -0.61281450984147878     
   4.3399999999999999       ,  -0.57005938239234144       ,  -0.68048811220256544     
   4.3599999999999994       ,  -0.60514623298533865       ,  -0.74215326469768150     
   4.3799999999999999       ,  -0.63727649705871048       ,  -0.79688987514742748     
   4.3999999999999995       ,  -0.66637117992603367       ,  -0.84384388539359867     
   4.4199999999999999       ,  -0.69228274616964314       ,  -0.88228118689026813     
   4.4399999999999995       ,  -0.71482362839488678       ,  -0.91163680797404689     
   4.4600000000000000       ,  -0.73379657117503294       ,  -0.93155706187137799     
   4.4799999999999995       ,  -0.74902508724220007       ,  -0.94193267943512293     
   4.5000000000000000       ,  -0.76038234006558170       ,  -0.94292136481242317     
   4.5199999999999996       ,  -0.76781688045779206       ,  -0.93495868738178223     
   4.5400000000000000       ,  -0.77137384855246327       ,  -0.91875673877708042     
   4.5599999999999996       ,  -0.77121049721300283       ,  -0.89529051768847856     
   4.5800000000000001       ,  -0.76760518692251511       ,  -0.86577253498338524     
