r(A) ,   X_ray-calc  ,   X_ray_exp_renorm
   2.0000000000000000E-002  ,   0.24120500393126265       ,   -1.6954311243238851     
   4.0000000000000001E-002  ,   0.16633513042455234       ,   -1.7666079037503630     
   5.9999999999999998E-002  ,    4.3836428018085676E-002  ,   -1.8829728445402314     
   8.0000000000000002E-002  ,  -0.12294210922117400       ,   -2.0412109834771446     
  0.10000000000000001       ,  -0.32946437345897434       ,   -2.2368375800682756     
  0.12000000000000001       ,  -0.57015322440291472       ,   -2.4643475756717499     
  0.13999999999999999       ,  -0.83856942391971068       ,   -2.7173983972752014     
  0.16000000000000000       ,   -1.1276172091533294       ,   -2.9890195714740373     
  0.17999999999999999       ,   -1.4297693855429754       ,   -3.2718416768429330     
  0.19999999999999998       ,   -1.7373041753996714       ,   -3.5583365031725465     
  0.22000000000000000       ,   -2.0425456926833903       ,   -3.8410599277264650     
  0.23999999999999999       ,   -2.3380998425342345       ,   -4.1128889740594037     
  0.26000000000000001       ,   -2.6170776662747923       ,   -4.3672447883955634     
  0.28000000000000003       ,   -2.8732986594282921       ,   -4.5982938405704123     
  0.30000000000000004       ,   -3.1014673617058390       ,   -4.8011205081470045     
  0.32000000000000001       ,   -3.2973175241071644       ,   -4.9718653000925084     
  0.34000000000000002       ,   -3.4577193609169625       ,   -5.1078242777348528     
  0.36000000000000004       ,   -3.5807467480529760       ,   -5.2075066855205989     
  0.38000000000000000       ,   -3.6657026832078197       ,   -5.2706493567261949     
  0.40000000000000002       ,   -3.7131028234040051       ,   -5.2981880507385899     
  0.42000000000000004       ,   -3.7246184065030534       ,   -5.2921874487273071     
  0.44000000000000000       ,   -3.7029812901857837       ,   -5.2557330246179585     
  0.46000000000000002       ,   -3.6518551530766237       ,   -5.1927893628689201     
  0.48000000000000004       ,   -3.5756780508920882       ,   -5.1080306638546213     
  0.50000000000000000       ,   -3.4794824651128118       ,   -5.0066501193415158     
  0.52000000000000002       ,   -3.3686996900378308       ,   -4.8941555213130741     
  0.54000000000000004       ,   -3.2489558526474767       ,   -4.7761588642137696     
  0.56000000000000005       ,   -3.1258670348917739       ,   -4.6581678015501771     
  0.58000000000000007       ,   -3.0048408666271564       ,   -4.5453866221452968     
  0.59999999999999998       ,   -2.8908915866358669       ,   -4.4425339299747515     
  0.62000000000000000       ,   -2.7884749462075078       ,   -4.3536834660341306     
  0.64000000000000001       ,   -2.7013484811445800       ,   -4.2821335326044956     
  0.66000000000000003       ,   -2.6324616384625288       ,   -4.2303093096900852     
  0.68000000000000005       ,   -2.5838790549648265       ,   -4.1997010373372099     
  0.70000000000000007       ,   -2.5567389928873565       ,   -4.1908396280993321     
  0.72000000000000008       ,   -2.5512475928399394       ,   -4.2033098261720871     
  0.73999999999999999       ,   -2.5667082576093376       ,   -4.2357995995774047     
  0.76000000000000001       ,   -2.6015841827086557       ,   -4.2861830937687886     
  0.78000000000000003       ,   -2.6535908490255840       ,   -4.3516332402331841     
  0.80000000000000004       ,   -2.7198142333563582       ,   -4.4287590477496623     
  0.82000000000000006       ,   -2.7968496118879798       ,   -4.5137617454851773     
  0.84000000000000008       ,   -2.8809551603455335       ,   -4.6026033260813914     
  0.85999999999999999       ,   -2.9682141146900576       ,   -4.6911806737450954     
  0.88000000000000000       ,   -3.0546990609250861       ,   -4.7754983672524851     
  0.90000000000000002       ,   -3.1366319752115093       ,   -4.8518334203452742     
  0.92000000000000004       ,   -3.2105339300380025       ,   -4.9168856514809915     
  0.94000000000000006       ,   -3.2733589034170567       ,   -4.9679080407319836     
  0.96000000000000008       ,   -3.3226068522923513       ,   -5.0028123043622683     
  0.97999999999999998       ,   -3.3564121074408071       ,   -5.0202459601965854     
   1.0000000000000000       ,   -3.3736041779104085       ,   -5.0196383262392184     
   1.0200000000000000       ,   -3.3737391766281428       ,   -5.0012141437459308     
   1.0400000000000000       ,   -3.3571012505130926       ,   -4.9659747943886057     
   1.0600000000000001       ,   -3.3246745723661046       ,   -4.9156483392195822     
   1.0800000000000001       ,   -3.2780875827622471       ,   -4.8526107963806613     
   1.1000000000000001       ,   -3.2195322153242643       ,   -4.7797821499449276     
   1.1200000000000001       ,   -3.1516617592998974       ,   -4.7005015041639355     
   1.1400000000000001       ,   -3.0774717759602170       ,   -4.6183865326326119     
   1.1600000000000001       ,   -3.0001690633076010       ,   -4.5371828952678328     
   1.1799999999999999       ,   -2.9230340378582871       ,   -4.4606095910487653     
   1.2000000000000000       ,   -2.8492820619920498       ,   -4.3922062739359129     
   1.2200000000000000       ,   -2.7819291881969899       ,   -4.3351883853869078     
   1.2400000000000000       ,   -2.7236675235934871       ,   -4.2923155606274621     
   1.2600000000000000       ,   -2.6767549535921198       ,   -4.2657781670275510     
   1.2800000000000000       ,   -2.6429233240068162       ,   -4.2571060588361380     
   1.3000000000000000       ,   -2.6233083944082982       ,   -4.2671027167386475     
   1.3200000000000001       ,   -2.6184039751785093       ,   -4.2958069216929724     
   1.3400000000000001       ,   -2.6280416836518081       ,   -4.3424830319962675     
   1.3600000000000001       ,   -2.6513967402481993       ,   -4.4056398337948472     
   1.3800000000000001       ,   -2.6870192136844109       ,   -4.4830768613074374     
   1.4000000000000001       ,   -2.7328891543961626       ,   -4.5719560749902346     
   1.4200000000000002       ,   -2.7864931640453801       ,   -4.6688958813112205     
   1.4399999999999999       ,   -2.8449191694583771       ,   -4.7700837093433073     
   1.4600000000000000       ,   -2.9049655295752825       ,   -4.8714027535158726     
   1.4800000000000000       ,   -2.9632601260020333       ,   -4.9685680679973681     
   1.5000000000000000       ,   -3.0163847867902067       ,   -5.0572669680616871     
   1.5200000000000000       ,   -3.0610002771425564       ,   -5.1332986611860516     
   1.5400000000000000       ,   -3.0939671604628338       ,   -5.1927081913890678     
   1.5600000000000001       ,   -3.1124580818662952       ,   -5.2319101227287899     
   1.5800000000000001       ,   -3.1140574404079020       ,   -5.2477978933294658     
   1.6000000000000001       ,   -3.0968449761411918       ,   -5.2378354152136612     
   1.6200000000000001       ,   -3.0594604786886470       ,   -5.2001282481937343     
   1.6400000000000001       ,   -3.0011475961039480       ,   -5.1334725052428754     
   1.6600000000000001       ,   -2.9217755543290265       ,   -5.0373805171899253     
   1.6800000000000002       ,   -2.8218384547932556       ,   -4.9120831607646602     
   1.7000000000000000       ,   -2.7024326667521947       ,   -4.7585096013668480     
   1.7200000000000000       ,   -2.5652136390363234       ,   -4.5782459881441131     
   1.7400000000000000       ,   -2.4123341926074948       ,   -4.3734753353108333     
   1.7600000000000000       ,   -2.2463669939025714       ,   -4.1469014060303415     
   1.7800000000000000       ,   -2.0702144271276306       ,   -3.9016598650294996     
   1.8000000000000000       ,   -1.8870094645321853       ,   -3.6412202709329922     
   1.8200000000000001       ,   -1.7000113661941161       ,   -3.3692826330387682     
   1.8400000000000001       ,   -1.5125001201066857       ,   -3.0896722603276343     
   1.8600000000000001       ,   -1.3276734607106897       ,   -2.8062364895709315     
   1.8800000000000001       ,   -1.1485500867848202       ,   -2.5227466068822784     
   1.9000000000000001       ,  -0.97788235066304485       ,   -2.2428078903851993     
   1.9200000000000002       ,  -0.81808122783106718       ,   -1.9697802223689935     
   1.9399999999999999       ,  -0.67115582082951175       ,   -1.7067111719349175     
   1.9600000000000000       ,  -0.53866902885550583       ,   -1.4562828600950162     
   1.9800000000000000       ,  -0.42171035123947342       ,   -1.2207733156040004     
   2.0000000000000000       ,  -0.32088611660810551       ,   -1.0020324379197023     
   2.0200000000000000       ,  -0.23632676720169421       ,  -0.80147212829597725     
   2.0400000000000000       ,  -0.16771020521406357       ,  -0.62006965303085138     
   2.0600000000000001       ,  -0.11429964841788230       ,  -0.45838288257160775     
   2.0800000000000001       ,   -7.4993965629742879E-002  ,  -0.31657572040724419     
   2.1000000000000001       ,   -4.8388084591228876E-002  ,  -0.19445180551434654     
   2.1200000000000001       ,   -3.2840796829633950E-002  ,   -9.1494445546988656E-002
   2.1400000000000001       ,   -2.6547132332409688E-002  ,   -6.9107138869303579E-003
   2.1600000000000001       ,   -2.7612442714321991E-002  ,    6.0322283826055041E-002
   2.1800000000000002       ,   -3.4125411354599032E-002  ,   0.11141080928153239     
   2.2000000000000002       ,   -4.4227394511928295E-002  ,   0.14769916176423581     
   2.2200000000000002       ,   -5.6175776370573964E-002  ,   0.17062693730635178     
   2.2400000000000002       ,   -6.8399377579559689E-002  ,   0.18168987218486427     
   2.2600000000000002       ,   -7.9544372723151915E-002  ,   0.18240492697699290     
   2.2800000000000002       ,   -8.8509627148226883E-002  ,   0.17427993149216905     
   2.3000000000000003       ,   -9.4470836685766252E-002  ,   0.15878779715031369     
   2.3200000000000003       ,   -9.6893324163854488E-002  ,   0.13734502857791808     
   2.3399999999999999       ,   -9.5533794362993127E-002  ,   0.11129404434764942     
   2.3599999999999999       ,   -9.0431756210712991E-002  ,    8.1888658423948879E-002
   2.3799999999999999       ,   -8.1891672138985128E-002  ,    5.0281985578515258E-002
   2.3999999999999999       ,   -7.0457177402355520E-002  ,    1.7516018157580839E-002
   2.4199999999999999       ,   -5.6878918159982042E-002  ,   -1.5487823815361320E-002
   2.4399999999999999       ,   -4.2077681520637997E-002  ,   -4.7937748198353648E-002
   2.4600000000000000       ,   -2.7104532747560209E-002  ,   -7.9180657341053284E-002
   2.4800000000000000       ,   -1.3099637482426924E-002  ,  -0.10871141598192850     
   2.5000000000000000       ,   -1.2513368081236251E-003  ,  -0.13618226950130646     
   2.5200000000000000       ,    7.2431299982641901E-003  ,  -0.16141211160114782     
   2.5400000000000000       ,    1.1214083722812327E-002  ,  -0.18439505955616273     
   2.5600000000000001       ,    9.5521330735573833E-003  ,  -0.20530758097711668     
   2.5800000000000001       ,    1.2365415600555276E-003  ,  -0.22451324498336944     
   2.6000000000000001       ,   -1.4641111198743013E-002  ,  -0.24256405711314968     
   2.6200000000000001       ,   -3.8858042555282128E-002  ,  -0.26019729258780583     
   2.6400000000000001       ,   -7.2045971782938742E-002  ,  -0.27832677446753673     
   2.6600000000000001       ,  -0.11468101988088703       ,  -0.29802765546271404     
   2.6800000000000002       ,  -0.16707723958311402       ,  -0.32051395396583976     
   2.7000000000000002       ,  -0.22938309730970025       ,  -0.34710836102058784     
   2.7200000000000002       ,  -0.30158017324651315       ,  -0.37920416587177891     
   2.7400000000000002       ,  -0.38348334899142550       ,  -0.41821952986836014     
   2.7600000000000002       ,  -0.47474181173931157       ,  -0.46554475480840157     
   2.7800000000000002       ,  -0.57484031418410009       ,  -0.52248362261101100     
   2.8000000000000003       ,  -0.68310028182131100       ,  -0.59019030695870589     
   2.8200000000000003       ,  -0.79868054346576345       ,  -0.66960375195234023     
   2.8399999999999999       ,  -0.92057766415361653       ,  -0.76138175579526779     
   2.8599999999999999       ,   -1.0476260686950747       ,  -0.86583726834882702     
   2.8799999999999999       ,   -1.1784983451322033       ,  -0.98287959174007744     
   2.8999999999999999       ,   -1.3117062967314139       ,   -1.1119632480672665     
   2.9199999999999999       ,   -1.4456034564525031       ,   -1.2520472368379421     
   2.9399999999999999       ,   -1.5783898783437069       ,   -1.4015672411377003     
   2.9600000000000000       ,   -1.7081200675525592       ,   -1.5584230550264551     
   2.9800000000000000       ,   -1.8327148988981194       ,   -1.7199831001963819     
   3.0000000000000000       ,   -1.9499783005801277       ,   -1.8831073879378319     
   3.0200000000000000       ,   -2.0576193452267106       ,   -2.0441896786471410     
   3.0400000000000000       ,   -2.1532801990186106       ,   -2.1992189159396411     
   3.0600000000000001       ,   -2.2345701381497127       ,   -2.3438592903981115     
   3.0800000000000001       ,   -2.2991055603464621       ,   -2.4735475466900496     
   3.1000000000000001       ,   -2.3445556099796194       ,   -2.5836054168357876     
   3.1200000000000001       ,   -2.3686927127743664       ,   -2.6693643722156182     
   3.1400000000000001       ,   -2.3694469958302005       ,   -2.7262992674063673     
   3.1600000000000001       ,   -2.3449632667116194       ,   -2.7501669283128116     
   3.1800000000000002       ,   -2.2936589576644546       ,   -2.7371453404766872     
   3.2000000000000002       ,   -2.2142812224773971       ,   -2.6839688419148984     
   3.2200000000000002       ,   -2.1059612173751883       ,   -2.5880546342105895     
   3.2400000000000002       ,   -1.9682635144697642       ,   -2.4476160057387175     
   3.2600000000000002       ,   -1.8012285946548388       ,   -2.2617579151877982     
   3.2800000000000002       ,   -1.6054064509840971       ,   -2.0305510084207739     
   3.3000000000000003       ,   -1.3818795044306016       ,   -1.7550807267767310     
   3.3200000000000003       ,   -1.1322732885809363       ,   -1.4374688930802786     
   3.3400000000000003       ,  -0.85875369158337733       ,   -1.0808660097016620     
   3.3599999999999999       ,  -0.56400994226540380       ,  -0.68941344246929770     
   3.3799999999999999       ,  -0.25122297924960496       ,  -0.26817566224254658     
   3.3999999999999999       ,    7.5980669113116253E-002  ,   0.17695626341763282     
   3.4199999999999999       ,   0.41358885844545967       ,   0.63938773043230146     
   3.4399999999999999       ,   0.75727651336090851       ,    1.1119670595025841     
   3.4600000000000000       ,    1.1024893959095852       ,    1.5871513446682206     
   3.4800000000000000       ,    1.4445368851592755       ,    2.0571869356821608     
   3.5000000000000000       ,    1.7786913111863594       ,    2.5142992145370928     
   3.5200000000000000       ,    2.1002910791575653       ,    2.9508859181381544     
   3.5400000000000000       ,    2.4048446025963344       ,    3.3597080467743905     
   3.5600000000000001       ,    2.6881319501818099       ,    3.7340723926314472     
   3.5800000000000001       ,    2.9463011045156966       ,    4.0679999273252241     
   3.6000000000000001       ,    3.1759558370057777       ,    4.3563746975937701     
   3.6200000000000001       ,    3.3742324187654464       ,    4.5950684812795197     
   3.6400000000000001       ,    3.5388627072382421       ,    4.7810372315294787     
   3.6600000000000001       ,    3.6682215619388363       ,    4.9123862589460039     
   3.6800000000000002       ,    3.7613570362108710       ,    4.9884021366645177     
   3.7000000000000002       ,    3.8180023478543177       ,    5.0095504248792002     
   3.7200000000000002       ,    3.8385692298044782       ,    4.9774394588828290     
   3.7400000000000002       ,    3.8241228807815792       ,    4.8947515863043325     
   3.7600000000000002       ,    3.7763393519618083       ,    4.7651443329778651     
   3.7800000000000002       ,    3.6974467961027058       ,    4.5931249824364304     
   3.8000000000000003       ,    3.5901525478379490       ,    4.3839029342415765     
   3.8200000000000003       ,    3.4575584773785875       ,    4.1432249287335638     
   3.8400000000000003       ,    3.3030674464904144       ,    3.8771987637112271     
   3.8599999999999999       ,    3.1302839804953564       ,    3.5921114623880790     
   3.8799999999999999       ,    2.9429124421845425       ,    3.2942479698187288     
   3.8999999999999999       ,    2.7446560462788701       ,    2.9897163531550759     
   3.9199999999999999       ,    2.5391199843955286       ,    2.6842851642459093     
   3.9399999999999999       ,    2.3297217430548898       ,    2.3832381040950330     
   3.9600000000000000       ,    2.1196113983915086       ,    2.0912504280834661     
   3.9800000000000000       ,    1.9116042725549671       ,    1.8122906760624484     
   4.0000000000000000       ,    1.7081278538262148       ,    1.5495503356622800     
   4.0199999999999996       ,    1.5111843340248232       ,    1.3054029881600500     
   4.0400000000000000       ,    1.3223295241586925       ,    1.0813933847443575     
   4.0599999999999996       ,    1.1426682954588812       ,   0.87825579915880159     
   4.0800000000000001       ,   0.97286608169065258       ,   0.69595994240750836     
   4.0999999999999996       ,   0.81317539349018297       ,   0.53378174649485899     
   4.1199999999999992       ,   0.66347575886073251       ,   0.39039546362723210     
   4.1399999999999997       ,   0.52332503626803129       ,   0.26398281664395679     
   4.1599999999999993       ,   0.39201966555805839       ,   0.15235440128677832     
   4.1799999999999997       ,   0.26866114121412715       ,    5.3078199815274944E-002
   4.1999999999999993       ,   0.15222582222587097       ,   -3.6390070780979951E-002
   4.2199999999999998       ,    4.1635138555886984E-002  ,  -0.11857998148708883     
   4.2399999999999993       ,   -6.4176683304112664E-002  ,  -0.19588771721564818     
   4.2599999999999998       ,  -0.16620007773134848       ,  -0.27047017667726281     
   4.2799999999999994       ,  -0.26529520226768227       ,  -0.34415568748986031     
   4.2999999999999998       ,  -0.36214665447396716       ,  -0.41837440805303611     
   4.3199999999999994       ,  -0.45722944459065917       ,  -0.49411061002077805     
   4.3399999999999999       ,  -0.55078731969016026       ,  -0.57187808613033586     
   4.3599999999999994       ,  -0.64282399341493568       ,  -0.65171894667178387     
   4.3799999999999999       ,  -0.73310728016373394       ,  -0.73322509388195467     
   4.3999999999999995       ,  -0.82118558645205075       ,  -0.81558073616027105     
   4.4199999999999999       ,  -0.90641569728888916       ,  -0.89762346007470450     
   4.4399999999999995       ,  -0.98800033245540719       ,  -0.97792065072713541     
   4.4600000000000000       ,   -1.0650335549050862       ,   -1.0548574681772926     
   4.4799999999999995       ,   -1.1365518064429976       ,   -1.1267321711136735     
   4.5000000000000000       ,   -1.2015881360468388       ,   -1.1918543436408309     
   4.5199999999999996       ,   -1.2592270812228274       ,   -1.2486415342128878     
   4.5400000000000000       ,   -1.3086576658256432       ,   -1.2957099569001107     
   4.5599999999999996       ,   -1.3492220875121170       ,   -1.3319552261574605     
   4.5800000000000001       ,   -1.3804578787579678       ,   -1.3566195816200270     
