r(A) ,   X_ray-calc  ,   X_ray_exp_renorm
   2.0000000000000000E-002  ,   -3.2535308878889833       ,   -5.8081363215319701     
   4.0000000000000001E-002  ,   -3.2635502858269518       ,   -5.7774904933893234     
   5.9999999999999998E-002  ,   -3.2795217850075646       ,   -5.7271030125688860     
   8.0000000000000002E-002  ,   -3.3003911434486186       ,   -5.6579906845642132     
  0.10000000000000001       ,   -3.3247547258179391       ,   -5.5715443427054012     
  0.12000000000000001       ,   -3.3509279043144380       ,   -5.4694970621846162     
  0.13999999999999999       ,   -3.3770276176155849       ,   -5.3538845686142800     
  0.16000000000000000       ,   -3.4010653729219289       ,   -5.2269987610749844     
  0.17999999999999999       ,   -3.4210464932301723       ,   -5.0913354333325032     
  0.19999999999999998       ,   -3.4350711115050347       ,   -4.9495374171306601     
  0.22000000000000000       ,   -3.4414323088530034       ,   -4.8043344847768541     
  0.23999999999999999       ,   -3.4387068902456748       ,   -4.6584814316820333     
  0.26000000000000001       ,   -3.4258345853025949       ,   -4.5146958106612152     
  0.28000000000000003       ,   -3.4021819411899328       ,   -4.3755968068308633     
  0.30000000000000004       ,   -3.3675878199166176       ,   -4.2436467237259361     
  0.32000000000000001       ,   -3.3223881961597117       ,   -4.1210964974224309     
  0.34000000000000002       ,   -3.2674188411746106       ,   -4.0099365664313122     
  0.36000000000000004       ,   -3.2039954356524678       ,   -3.9118543022188614     
  0.38000000000000000       ,   -3.1338716388508558       ,   -3.8281990505776471     
  0.40000000000000002       ,   -3.0591766108879774       ,   -3.7599556507819134     
  0.42000000000000004       ,   -2.9823343981447810       ,   -3.7077270914215381     
  0.44000000000000000       ,   -2.9059684088622268       ,   -3.6717267337432795     
  0.46000000000000002       ,   -2.8327948917269694       ,   -3.6517802906817938     
  0.48000000000000004       ,   -2.7655098543813978       ,   -3.6473374985976590     
  0.50000000000000000       ,   -2.7066741979233058       ,   -3.6574931655857670     
  0.52000000000000002       ,   -2.6586019818325046       ,   -3.6810170319196382     
  0.54000000000000004       ,   -2.6232566640197579       ,   -3.7163916417108562     
  0.56000000000000005       ,   -2.6021598842212397       ,   -3.7618572070609115     
  0.58000000000000007       ,   -2.5963168858601602       ,   -3.8154622534318081     
  0.59999999999999998       ,   -2.6061620201975355       ,   -3.8751186737005012     
  0.62000000000000000       ,   -2.6315269731245303       ,   -3.9386596936945253     
  0.64000000000000001       ,   -2.6716334318838082       ,   -4.0038991682833887     
  0.66000000000000003       ,   -2.7251109041223591       ,   -4.0686905875612771     
  0.68000000000000005       ,   -2.7900393564164032       ,   -4.1309841792534669     
  0.70000000000000007       ,   -2.8640152971495034       ,   -4.1888805467847154     
  0.72000000000000008       ,   -2.9442389328988821       ,   -4.2406793815764470     
  0.73999999999999999       ,   -3.0276191201573912       ,   -4.2849219307238338     
  0.76000000000000001       ,   -3.1108920537426581       ,   -4.3204260834383312     
  0.78000000000000003       ,   -3.1907490130488232       ,   -4.3463131563555866     
  0.80000000000000004       ,   -3.2639680543742857       ,   -4.3620257026114393     
  0.82000000000000006       ,   -3.3275443113194396       ,   -4.3673359350571870     
  0.84000000000000008       ,   -3.3788135566826778       ,   -4.3623446318883969     
  0.85999999999999999       ,   -3.4155638904626993       ,   -4.3474706745378837     
  0.88000000000000000       ,   -3.4361308425327293       ,   -4.3234316439283642     
  0.90000000000000002       ,   -3.4394717995259882       ,   -4.2912161631675891     
  0.92000000000000004       ,   -3.4252164595086727       ,   -4.2520489139605457     
  0.94000000000000006       ,   -3.3936909539312663       ,   -4.2073494625801064     
  0.96000000000000008       ,   -3.3459143169617906       ,   -4.1586862023443594     
  0.97999999999999998       ,   -3.2835670859481474       ,   -4.1077268476217688     
   1.0000000000000000       ,   -3.2089329389606349       ,   -4.0561869953235679     
   1.0200000000000000       ,   -3.1248153706625996       ,   -4.0057783011948827     
   1.0400000000000000       ,   -3.0344324315398556       ,   -3.9581577992755799     
   1.0600000000000001       ,   -2.9412934658602281       ,   -3.9148798247544403     
   1.0800000000000001       ,   -2.8490625431051915       ,   -3.8773518859383325     
   1.1000000000000001       ,   -2.7614138544307147       ,   -3.8467956747130634     
   1.1200000000000001       ,   -2.6818847156340380       ,   -3.8242142127052201     
   1.1400000000000001       ,   -2.6137319650447863       ,   -3.8103659096594038     
   1.1600000000000001       ,   -2.5597974615747163       ,   -3.8057460696216996     
   1.1799999999999999       ,   -2.5223880769533533       ,   -3.8105761283475204     
   1.2000000000000000       ,   -2.5031750482378312       ,   -3.8248006512424508     
   1.2200000000000000       ,   -2.5031168320627066       ,   -3.8480918743792114     
   1.2400000000000000       ,   -2.5224087088047593       ,   -3.8798613405928348     
   1.2600000000000000       ,   -2.5604613577460262       ,   -3.9192779764681367     
   1.2800000000000000       ,   -2.6159095037592581       ,   -3.9652917812536321     
   1.3000000000000000       ,   -2.6866505661890963       ,   -4.0166621610621691     
   1.3200000000000001       ,   -2.7699120677205360       ,   -4.0719898452669909     
   1.3400000000000001       ,   -2.8623454315903110       ,   -4.1297512691495077     
   1.3600000000000001       ,   -2.9601427543465784       ,   -4.1883342981457030     
   1.3800000000000001       ,   -3.0591722298937825       ,   -4.2460742031807577     
   1.4000000000000001       ,   -3.1551271550719875       ,   -4.3012888705096106     
   1.4200000000000002       ,   -3.2436828972554927       ,   -4.3523123385031433     
   1.4399999999999999       ,   -3.3206558724184583       ,   -4.3975258918342268     
   1.4600000000000000       ,   -3.3821584811868011       ,   -4.4353861032839390     
   1.4800000000000000       ,   -3.4247440848103063       ,   -4.4644493868662316     
   1.5000000000000000       ,   -3.4455364676724001       ,   -4.4833928046706912     
   1.5200000000000000       ,   -3.4423388137318018       ,   -4.4910310452101676     
   1.5400000000000000       ,   -3.4137179984673627       ,   -4.4863296549249672     
   1.5600000000000001       ,   -3.3590609351735452       ,   -4.4684147493448894     
   1.5800000000000001       ,   -3.2786007781454356       ,   -4.4365795498056153     
   1.6000000000000001       ,   -3.1734119337985778       ,   -4.3902881804809528     
   1.6200000000000001       ,   -3.0453740192392487       ,   -4.3291772153424271     
   1.6400000000000001       ,   -2.8971060899230792       ,   -4.2530554837826733     
   1.6600000000000001       ,   -2.7318735878763656       ,   -4.1619026271747277     
   1.6800000000000002       ,   -2.5534714957650291       ,   -4.0558668485831042     
   1.7000000000000000       ,   -2.3660880800574904       ,   -3.9352622179585186     
   1.7200000000000000       ,   -2.1741543342943150       ,   -3.8005657908000852     
   1.7400000000000000       ,   -1.9821847635117000       ,   -3.6524146761743048     
   1.7600000000000000       ,   -1.7946154634969509       ,   -3.4916030578872479     
   1.7800000000000000       ,   -1.6156455327070292       ,   -3.3190790389268674     
   1.8000000000000000       ,   -1.4490877082715270       ,   -3.1359410526899030     
   1.8200000000000001       ,   -1.2982337474566643       ,   -2.9434334734618073     
   1.8400000000000001       ,   -1.1657394978985751       ,   -2.7429409709980264     
   1.8600000000000001       ,   -1.0535338374401300       ,   -2.5359810966979279     
   1.8800000000000001       ,  -0.96275474815995754       ,   -2.3241945672048465     
   1.9000000000000001       ,  -0.89371475555362800       ,   -2.1093327290169475     
   1.9200000000000002       ,  -0.84589685347542432       ,   -1.8932417465979288     
   1.9399999999999999       ,  -0.81798089166717414       ,   -1.6778431561443041     
   1.9600000000000000       ,  -0.80789926968161274       ,   -1.4651105650208691     
   1.9800000000000000       ,  -0.81291970209392639       ,   -1.2570424481820586     
   2.0000000000000000       ,  -0.82975183587736179       ,   -1.0556311909112439     
   2.0200000000000000       ,  -0.85467364835231774       ,  -0.86282874341533533     
   2.0400000000000000       ,  -0.88367286432146441       ,  -0.68050947725662969     
   2.0600000000000001       ,  -0.91259812829122822       ,  -0.51043105531059241     
   2.0800000000000001       ,  -0.93731436887793185       ,  -0.35419433438326908     
   2.1000000000000001       ,  -0.95385670626998931       ,  -0.21320350125549564     
   2.1200000000000001       ,  -0.95857738023008843       ,   -8.8627787707283273E-002
   2.1400000000000001       ,  -0.94828050753787463       ,    1.8633791961645427E-002
   2.1600000000000001       ,  -0.92033999809169487       ,   0.10798319466765627     
   2.1800000000000002       ,  -0.87279664507876387       ,   0.17914812615602826     
   2.2000000000000002       ,  -0.80443122755224461       ,   0.23219945952053520     
   2.2200000000000002       ,  -0.71481138942942413       ,   0.26756006282020389     
   2.2400000000000002       ,  -0.60431104992976514       ,   0.28600402018652066     
   2.2600000000000002       ,  -0.47410211750521591       ,   0.28864550735856537     
   2.2800000000000002       ,  -0.32611928279751301       ,   0.27691691183579831     
   2.3000000000000003       ,  -0.16299961781283467       ,   0.25253615942105795     
   2.3200000000000003       ,    1.2000427126924449E-002  ,   0.21746361003525796     
   2.3399999999999999       ,   0.19510729128947929       ,   0.17384930152197689     
   2.3599999999999999       ,   0.38214789759072976       ,   0.12397173447098513     
   2.3799999999999999       ,   0.56867819684270782       ,    7.0169786788563060E-002
   2.3999999999999999       ,   0.75011802567493568       ,    1.4769706591961689E-002
   2.4199999999999999       ,   0.92188756306044251       ,   -3.9990560663485608E-002
   2.4399999999999999       ,    1.0795407717099419       ,   -9.2037215484059659E-002
   2.4600000000000000       ,    1.2188914825396435       ,  -0.13953396458547523     
   2.4800000000000000       ,    1.3361282070673106       ,  -0.18095017853369655     
   2.5000000000000000       ,    1.4279143222159270       ,  -0.21512116079310512     
   2.5200000000000000       ,    1.4914709380701021       ,  -0.24129797936445960     
   2.5400000000000000       ,    1.5246405015033857       ,  -0.25918455296948184     
   2.5600000000000001       ,    1.5259299748770656       ,  -0.26896002401677854     
   2.5800000000000001       ,    1.4945332259399269       ,  -0.27128488214803076     
   2.6000000000000001       ,    1.4303330399190093       ,  -0.26728981284725833     
   2.6200000000000001       ,    1.3338838867753604       ,  -0.25854681961073717     
   2.6400000000000001       ,    1.2063772180583627       ,  -0.24702278659670576     
   2.6600000000000001       ,    1.0495916053333938       ,  -0.23501629007193658     
   2.6800000000000002       ,   0.86583044753243188       ,  -0.22507910816008650     
   2.7000000000000002       ,   0.65785025533697783       ,  -0.21992449527503882     
   2.7200000000000002       ,   0.42878266059079584       ,  -0.22232485609141225     
   2.7400000000000002       ,   0.18205329780978485       ,  -0.23500195079709388     
   2.7600000000000002       ,   -7.8699430685310101E-002  ,  -0.26051316738911323     
   2.7800000000000002       ,  -0.34970295270256146       ,  -0.30113768936514657     
   2.8000000000000003       ,  -0.62712409774792488       ,  -0.35876655333483792     
   2.8200000000000003       ,  -0.90713570113850761       ,  -0.43480062007913406     
   2.8399999999999999       ,   -1.1859748080073105       ,  -0.53006036846206184     
   2.8599999999999999       ,   -1.4599915867262756       ,  -0.64471116354871938     
   2.8799999999999999       ,   -1.7256886100728981       ,  -0.77820725285148218     
   2.8999999999999999       ,   -1.9797506912359288       ,  -0.92925721768481884     
   2.9199999999999999       ,   -2.2190659455302040       ,   -1.0958129651305513     
   2.9399999999999999       ,   -2.4407391652855503       ,   -1.2750836097466438     
   2.9600000000000000       ,   -2.6420989263590764       ,   -1.4635747865992665     
   2.9800000000000000       ,   -2.8207000761972076       ,   -1.6571530854357297     
   3.0000000000000000       ,   -2.9743233765498731       ,   -1.8511344291612595     
   3.0200000000000000       ,   -3.1009740854544297       ,   -2.0403943688502220     
   3.0400000000000000       ,   -3.1988811651159490       ,   -2.2194974631124693     
   3.0600000000000001       ,   -3.2664986023075993       ,   -2.3828421815878009     
   3.0800000000000001       ,   -3.3025100383277577       ,   -2.5248171484025042     
   3.1000000000000001       ,   -3.3058375430980926       ,   -2.6399640461709630     
   3.1200000000000001       ,   -3.2756549528630727       ,   -2.7231421549932593     
   3.1400000000000001       ,   -3.2114057458402412       ,   -2.7696893193338790     
   3.1600000000000001       ,   -3.1128249791674043       ,   -2.7755741284609767     
   3.1800000000000002       ,   -2.9799643779550871       ,   -2.7375342669587504     
   3.2000000000000002       ,   -2.8132192766540962       ,   -2.6531963380132400     
   3.2200000000000002       ,   -2.6133557857682259       ,   -2.5211729746660136     
   3.2400000000000002       ,   -2.3815363116571722       ,   -2.3411337178427463     
   3.2600000000000002       ,   -2.1193414083831605       ,   -2.1138469338385977     
   3.2800000000000002       ,   -1.8287858982825886       ,   -1.8411909422352937     
   3.3000000000000003       ,   -1.5123272671556456       ,   -1.5261334979862589     
   3.3200000000000003       ,   -1.1728645203125920       ,   -1.1726797856279434     
   3.3400000000000003       ,  -0.81372597151072712       ,  -0.78579010436220764     
   3.3599999999999999       ,  -0.43864481727076615       ,  -0.37126941458429452     
   3.3799999999999999       ,   -5.1721808735420531E-002  ,    6.4368155551201331E-002
   3.3999999999999999       ,   0.34262514729332022       ,   0.51405591362943581     
   3.4199999999999999       ,   0.73972406977943028       ,   0.97034768177745823     
   3.4399999999999999       ,    1.1347237096946192       ,    1.4256021630118392     
   3.4600000000000000       ,    1.5226785673045422       ,    1.8721730264206855     
   3.4800000000000000       ,    1.8986420893779903       ,    2.3025989476894146     
   3.5000000000000000       ,    2.2577655609851575       ,    2.7097878404112010     
   3.5200000000000000       ,    2.5953998374774225       ,    3.0871897068910665     
   3.5400000000000000       ,    2.9071967969483965       ,    3.4289529184103258     
   3.5600000000000001       ,    3.1892072463846781       ,    3.7300592910513535     
   3.5800000000000001       ,    3.4379719953428163       ,    3.9864340347594567     
   3.6000000000000001       ,    3.6506029234809012       ,    4.1950274952904119     
   3.6200000000000001       ,    3.8248511111592460       ,    4.3538665512914640     
   3.6400000000000001       ,    3.9591594685257787       ,    4.4620745386018639     
   3.6600000000000001       ,    4.0526977755743525       ,    4.5198596151402084     
   3.6800000000000002       ,    4.1053786162800510       ,    4.5284725155978025     
   3.7000000000000002       ,    4.1178533325571154       ,    4.4901356389835776     
   3.7200000000000002       ,    4.0914878136213746       ,    4.4079463289055711     
   3.7400000000000002       ,    4.0283186462521696       ,    4.2857580142929876     
   3.7600000000000002       ,    3.9309908531622777       ,    4.1280435491366880     
   3.7800000000000002       ,    3.8026791119495940       ,    3.9397456009677607     
   3.8000000000000003       ,    3.6469949488867259       ,    3.7261192723927716     
   3.8200000000000003       ,    3.4678829154310180       ,    3.4925722878230889     
   3.8400000000000003       ,    3.2695091595446404       ,    3.2445080352798525     
   3.8599999999999999       ,    3.0561460817546706       ,    2.9871765245539446     
   3.8799999999999999       ,    2.8320569054620974       ,    2.7255379186430515     
   3.8999999999999999       ,    2.6013839859991474       ,    2.4641427322832321     
   3.9199999999999999       ,    2.3680445328668052       ,    2.2070320922950621     
   3.9399999999999999       ,    2.1356371298914469       ,    1.9576606469804707     
   3.9600000000000000       ,    1.9073620198445342       ,    1.7188438273146656     
   3.9800000000000000       ,    1.6859575897491128       ,    1.4927302351174627     
   4.0000000000000000       ,    1.4736548716112388       ,    1.2807989979491399     
   4.0199999999999996       ,    1.2721511853482277       ,    1.0838810222475301     
   4.0400000000000000       ,    1.0826033236376116       ,   0.90220222885648882     
   4.0599999999999996       ,   0.90563994125743585       ,   0.73544609952808060     
   4.0800000000000001       ,   0.74139209359476854       ,   0.58283222626880749     
   4.0999999999999996       ,   0.58954019890175358       ,   0.44320705971692176     
   4.1199999999999992       ,   0.44937510310788226       ,   0.31514271455807502     
   4.1399999999999997       ,   0.31987042798936449       ,   0.19703951950642179     
   4.1599999999999993       ,   0.19976300262182167       ,    8.7228000176458917E-002
   4.1799999999999997       ,    8.7637928821530209E-002  ,   -1.5933847864713354E-002
   4.1999999999999993       ,   -1.7985277211865169E-002  ,  -0.11397181105935629     
   4.2199999999999998       ,  -0.11856898932919023       ,  -0.20821857964313836     
   4.2399999999999993       ,  -0.21547956735779658       ,  -0.29975149186605338     
   4.2599999999999998       ,  -0.30991828015993583       ,  -0.38934696483849035     
   4.2799999999999994       ,  -0.40286366263303824       ,  -0.47745292055188426     
   4.2999999999999998       ,  -0.49502738425778459       ,  -0.56417972406642669     
   4.3199999999999994       ,  -0.58682509992862975       ,  -0.64930935568151560     
   4.3399999999999999       ,  -0.67836309503206627       ,  -0.73232177212468608     
   4.3599999999999994       ,  -0.76944085381227689       ,  -0.81243670386981692     
   4.3799999999999999       ,  -0.85956900153336513       ,  -0.88866851433120297     
   4.3999999999999995       ,  -0.94800142497314988       ,  -0.95989123574785939     
   4.4199999999999999       ,   -1.0337797889645308       ,   -1.0249105151922790     
   4.4399999999999995       ,   -1.1157881629657931       ,   -1.0825389659597169     
   4.4600000000000000       ,   -1.1928150712654240       ,   -1.1316713323025815     
   4.4799999999999995       ,   -1.2636199991976773       ,   -1.1713559405374931     
   4.5000000000000000       ,   -1.3270012363274417       ,   -1.2008591222251710     
   4.5199999999999996       ,   -1.3818619210811776       ,   -1.2197196446963154     
   4.5400000000000000       ,   -1.4272712691552700       ,   -1.2277906544916388     
   4.5599999999999996       ,   -1.4625182139603210       ,   -1.2252672093589649     
   4.5800000000000001       ,   -1.4871550497323862       ,   -1.2126981194968283     
