r(A) ,   X_ray-calc  ,   X_ray_exp_renorm
   2.0000000000000000E-002  ,   0.23757101411285103       ,   -1.4789595242559530     
   4.0000000000000001E-002  ,   0.15356859540315682       ,   -1.5410484963931337     
   5.9999999999999998E-002  ,    1.6377637949258717E-002  ,   -1.6425560333267184     
   8.0000000000000002E-002  ,  -0.16988512969448652       ,   -1.7805904242988742     
  0.10000000000000001       ,  -0.39965813437687958       ,   -1.9512395377163294     
  0.12000000000000001       ,  -0.66612781729283044       ,   -2.1497011974286169     
  0.13999999999999999       ,  -0.96146414146527459       ,   -2.3704426462329531     
  0.16000000000000000       ,   -1.2770900661613021       ,   -2.6073833964690634     
  0.17999999999999999       ,   -1.6039750776438066       ,   -2.8540949498931250     
  0.19999999999999998       ,   -1.9329420136780366       ,   -3.1040102935312861     
  0.22000000000000000       ,   -2.2549759758984917       ,   -3.3506357656459520     
  0.23999999999999999       ,   -2.5615241053290094       ,   -3.5877578470303164     
  0.26000000000000001       ,   -2.8447754014365310       ,   -3.8096376679002786     
  0.28000000000000003       ,   -3.0979105771311346       ,   -4.0111865196240979     
  0.30000000000000004       ,   -3.3153131284691435       ,   -4.1881164034052052     
  0.32000000000000001       ,   -3.4927343114889968       ,   -4.3370606056449788     
  0.34000000000000002       ,   -3.6274065001321700       ,   -4.4556604248929803     
  0.36000000000000004       ,   -3.7181013789639747       ,   -4.5426154443452074     
  0.38000000000000000       ,   -3.7651315254118418       ,   -4.5976960982430288     
  0.40000000000000002       ,   -3.7702960771149643       ,   -4.6217186687921243     
  0.42000000000000004       ,   -3.7367732781933176       ,   -4.6164842199439606     
  0.44000000000000000       ,   -3.6689646733071255       ,   -4.5846842742167127     
  0.46000000000000002       ,   -3.5722974949851025       ,   -4.5297772203708018     
  0.48000000000000004       ,   -3.4529933006513618       ,   -4.4558404597602932     
  0.50000000000000000       ,   -3.3178121045638433       ,   -4.3674041206305008     
  0.52000000000000002       ,   -3.1737820728337791       ,   -4.2692727634821193     
  0.54000000000000004       ,   -3.0279252776620811       ,   -4.1663418467709059     
  0.56000000000000005       ,   -2.8869900263048067       ,   -4.0634158102013043     
  0.58000000000000007       ,   -2.7571998934841089       ,   -3.9650344622098403     
  0.59999999999999998       ,   -2.6440288112455970       ,   -3.8753139383273649     
  0.62000000000000000       ,   -2.5520104409098607       ,   -3.7978078468121788     
  0.64000000000000001       ,   -2.4845886147015843       ,   -3.7353933647447715     
  0.66000000000000003       ,   -2.4440139485044350       ,   -3.6901860266424960     
  0.68000000000000005       ,   -2.4312898599692123       ,   -3.6634857996218573     
  0.70000000000000007       ,   -2.4461692524971754       ,   -3.6557558096490022     
  0.72000000000000008       ,   -2.4872011236625986       ,   -3.6666338205245039     
  0.73999999999999999       ,   -2.5518244051990449       ,   -3.6949753197038788     
  0.76000000000000001       ,   -2.6365045169436918       ,   -3.7389258804377201     
  0.78000000000000003       ,   -2.7369064897438902       ,   -3.7960193925767443     
  0.80000000000000004       ,   -2.8480971445979297       ,   -3.8632978245672591     
  0.82000000000000006       ,   -2.9647677588239358       ,   -3.9374474302927789     
  0.84000000000000008       ,   -3.0814679437422972       ,   -4.0149457726834914     
  0.85999999999999999       ,   -3.1928411269937711       ,   -4.0922136192395158     
  0.88000000000000000       ,   -3.2938520859547511       ,   -4.1657656816541877     
  0.90000000000000002       ,   -3.3799974112105460       ,   -4.2323543222580255     
  0.92000000000000004       ,   -3.4474905701885117       ,   -4.2891007246520694     
  0.94000000000000006       ,   -3.4934143562661992       ,   -4.3336086067184327     
  0.96000000000000008       ,   -3.5158349008000509       ,   -4.3640563155003136     
  0.97999999999999998       ,   -3.5138730367934663       ,   -4.3792640529122631     
   1.0000000000000000       ,   -3.4877305673156558       ,   -4.3787340012837319     
   1.0200000000000000       ,   -3.4386708377008439       ,   -4.3626622070455889     
   1.0400000000000000       ,   -3.3689548637296327       ,   -4.3319221960755865     
   1.0600000000000001       ,   -3.2817360544403704       ,   -4.2880213916569172     
   1.0800000000000001       ,   -3.1809182171900119       ,   -4.2330324434007665     
   1.1000000000000001       ,   -3.0709829793620576       ,   -4.1695025136150603     
   1.1200000000000001       ,   -2.9567939495395912       ,   -4.1003443717803574     
   1.1400000000000001       ,   -2.8433858255949027       ,   -4.0287137891586724     
   1.1600000000000001       ,   -2.7357472050259988       ,   -3.9578781821193370     
   1.1799999999999999       ,   -2.6386060447124424       ,   -3.8910817101460502     
   1.2000000000000000       ,   -2.5562265481376909       ,   -3.8314120863651979     
   1.2200000000000000       ,   -2.4922257375427606       ,   -3.7816742066526592     
   1.2400000000000000       ,   -2.4494171199038512       ,   -3.7442753577109040     
   1.2600000000000000       ,   -2.4296877154422751       ,   -3.7211262421553144     
   1.2800000000000000       ,   -2.4339133333265854       ,   -3.7135613833880892     
   1.3000000000000000       ,   -2.4619154084349928       ,   -3.7222816741763922     
   1.3200000000000001       ,   -2.5124610196592805       ,   -3.7473209439493380     
   1.3400000000000001       ,   -2.5833059628103654       ,   -3.7880374772828929     
   1.3600000000000001       ,   -2.6712790199353100       ,   -3.8431304575883027     
   1.3800000000000001       ,   -2.7724039208112372       ,   -3.9106803731978128     
   1.4000000000000001       ,   -2.8820539966626777       ,   -3.9882115437058290     
   1.4200000000000002       ,   -2.9951332393923713       ,   -4.0727741353564477     
   1.4399999999999999       ,   -3.1062764516856110       ,   -4.1610423639266338     
   1.4600000000000000       ,   -3.2100604434173472       ,   -4.2494250550414270     
   1.4800000000000000       ,   -3.3012178248610842       ,   -4.3341843621097338     
   1.5000000000000000       ,   -3.3748448811201399       ,   -4.4115582413308463     
   1.5200000000000000       ,   -3.4265952852280055       ,   -4.4778822547798907     
   1.5400000000000000       ,   -3.4528520062523809       ,   -4.5297064128154236     
   1.5600000000000001       ,   -3.4508706673813814       ,   -4.5639030657447659     
   1.5800000000000001       ,   -3.4188887695532095       ,   -4.5777622955960728     
   1.6000000000000001       ,   -3.3561965707856038       ,   -4.5690718205403922     
   1.6200000000000001       ,   -3.2631669439245345       ,   -4.5361790813445904     
   1.6400000000000001       ,   -3.1412431642058514       ,   -4.4780339025347811     
   1.6600000000000001       ,   -2.9928852376487316       ,   -4.3942108802387407     
   1.6800000000000002       ,   -2.8214770060331298       ,   -4.2849114129878156     
   1.7000000000000000       ,   -2.6311977901593906       ,   -4.1509460309167165     
   1.7200000000000000       ,   -2.4268637008151477       ,   -3.9936983646283726     
   1.7400000000000000       ,   -2.2137449037421737       ,   -3.8150727024289361     
   1.7600000000000000       ,   -1.9973660270784905       ,   -3.6174275926689576     
   1.7800000000000000       ,   -1.7832975138977893       ,   -3.4034983403373169     
   1.8000000000000000       ,   -1.5769460269241502       ,   -3.1763115129538169     
   1.8200000000000001       ,   -1.3833519980502600       ,   -2.9390947049117240     
   1.8400000000000001       ,   -1.2070020853956938       ,   -2.6951848121009503     
   1.8600000000000001       ,   -1.0516636711859495       ,   -2.4479379457072357     
   1.8800000000000001       ,  -0.92024763223791062       ,   -2.2006438763596616     
   1.9000000000000001       ,  -0.81470447926423839       ,   -1.9564475624949820     
   1.9200000000000002       ,  -0.73595763832966321       ,   -1.7182798987044587     
   1.9399999999999999       ,  -0.68387619123858578       ,   -1.4887993423464989     
   1.9600000000000000       ,  -0.65728785969028802       ,   -1.2703455628768896     
   1.9800000000000000       ,  -0.65403147127964822       ,   -1.0649057317442212     
   2.0000000000000000       ,  -0.67104664427941052       ,  -0.87409355438472514     
   2.0200000000000000       ,  -0.70449703051391932       ,  -0.69914066137114472     
   2.0400000000000000       ,  -0.74992221462323805       ,  -0.54089954224343506     
   2.0600000000000001       ,  -0.80241232988046840       ,  -0.39985683889431167     
   2.0800000000000001       ,  -0.85679865313750780       ,  -0.27615552771640683     
   2.1000000000000001       ,  -0.90785291214700081       ,  -0.16962431894064384     
   2.1200000000000001       ,  -0.95048779422708973       ,   -7.9812491181084660E-002
   2.1400000000000001       ,  -0.97995119135216646       ,   -6.0283582009616537E-003
   2.1600000000000001       ,  -0.99200704713590904       ,    5.2620371839046158E-002
   2.1800000000000002       ,  -0.98309626862247690       ,    9.7185945880104513E-002
   2.2000000000000002       ,  -0.95047200290125688       ,   0.12884102390355054     
   2.2200000000000002       ,  -0.89230461892394708       ,   0.14884139520824607     
   2.2400000000000002       ,  -0.80775293476521903       ,   0.15849182138602677     
   2.2600000000000002       ,  -0.69699954064697767       ,   0.15911557842340290     
   2.2800000000000002       ,  -0.56124943559553975       ,   0.15202797734989490     
   2.3000000000000003       ,  -0.40269256657334263       ,   0.13851386916394492     
   2.3200000000000003       ,  -0.22443218015071525       ,   0.11980890005515415     
   2.3399999999999999       ,   -3.0382118073209584E-002  ,    9.7084089420949204E-002
   2.3599999999999999       ,   0.17486273581387585       ,    7.1433165032250237E-002
   2.3799999999999999       ,   0.38617775749296540       ,    4.3862012678044578E-002
   2.3999999999999999       ,   0.59807585572672961       ,    1.5279583764586806E-002
   2.4199999999999999       ,   0.80488449583719213       ,   -1.3510348024819553E-002
   2.4399999999999999       ,    1.0009260589538194       ,   -4.1817086080457519E-002
   2.4600000000000000       ,    1.1806951748843866       ,   -6.9070919857093974E-002
   2.4800000000000000       ,    1.3390269604609166       ,   -9.4831209451779280E-002
   2.5000000000000000       ,    1.4712506112267769       ,  -0.11879460134015586     
   2.5200000000000000       ,    1.5733235063229820       ,  -0.14080311276459634     
   2.5400000000000000       ,    1.6419418608544853       ,  -0.16085161210254689     
   2.5600000000000001       ,    1.6746249576382599       ,  -0.17909403568909069     
   2.5800000000000001       ,    1.6697710678653523       ,  -0.19584753236270788     
   2.6000000000000001       ,    1.6266842825623264       ,  -0.21159362793502995     
   2.6200000000000001       ,    1.5455725783366081       ,  -0.22697546278195746     
   2.6400000000000001       ,    1.4275184879454574       ,  -0.24279018359908672     
   2.6600000000000001       ,    1.2744246984062337       ,  -0.25997566826197438     
   2.6800000000000002       ,    1.0889377213771620       ,  -0.27959093004367747     
   2.7000000000000002       ,   0.87435344348759214       ,  -0.30278977961136155     
   2.7200000000000002       ,   0.63450884672923435       ,  -0.33078761189856770     
   2.7400000000000002       ,   0.37366447764101590       ,  -0.36482151828805165     
   2.7600000000000002       ,    9.6382334053458515E-002  ,  -0.40610428770196194     
   2.7800000000000002       ,  -0.19259626666341578       ,  -0.45577323598825803     
   2.8000000000000003       ,  -0.48846856170590308       ,  -0.51483517264566570     
   2.8200000000000003       ,  -0.78648013462513011       ,  -0.58410915797146234     
   2.8399999999999999       ,   -1.0820233895325495       ,  -0.66416900290018321     
   2.8599999999999999       ,   -1.3707221688964784       ,  -0.75528770004792511     
   2.8799999999999999       ,   -1.6485007449737312       ,  -0.85738613179021450     
   2.8999999999999999       ,   -1.9116362195008501       ,  -0.96998846650729764     
   2.9199999999999999       ,   -2.1567941693718446       ,   -1.0921866180074209     
   2.9399999999999999       ,   -2.3810481416368035       ,   -1.2226160003948083     
   2.9600000000000000       ,   -2.5818842959721633       ,   -1.3594445607282191     
   2.9800000000000000       ,   -2.7571930876351818       ,   -1.5003767189947907     
   3.0000000000000000       ,   -2.9052503549870696       ,   -1.6426733983063111     
   3.0200000000000000       ,   -3.0246905053918125       ,   -1.7831888015070769     
   3.0400000000000000       ,   -3.1144746710395266       ,   -1.9184240014172558     
   3.0600000000000001       ,   -3.1738567286354038       ,   -2.0445967820913213     
   3.0800000000000001       ,   -3.2023499478448874       ,   -2.1577265218226227     
   3.1000000000000001       ,   -3.1996967637597202       ,   -2.2537322710011836     
   3.1200000000000001       ,   -3.1658437756613429       ,   -2.3285415758615158     
   3.1400000000000001       ,   -3.1009235806767492       ,   -2.3782070587565833     
   3.1600000000000001       ,   -3.0052444835523819       ,   -2.3990273114420910     
   3.1800000000000002       ,   -2.8792885127556818       ,   -2.3876683119080631     
   3.2000000000000002       ,   -2.7237175501143938       ,   -2.3412813558788681     
   3.2200000000000002       ,   -2.5393867780272950       ,   -2.2576134150462255     
   3.2400000000000002       ,   -2.3273640954182593       ,   -2.1351059040231828     
   3.2600000000000002       ,   -2.0889536788427985       ,   -1.9729780598207678     
   3.2800000000000002       ,   -1.8257214923171348       ,   -1.7712915082817238     
   3.3000000000000003       ,   -1.5395202973252775       ,   -1.5309931022645544     
   3.3200000000000003       ,   -1.2325115960146626       ,   -1.2539337515645430     
   3.3400000000000003       ,  -0.90718196234747173       ,  -0.94286170435279892     
   3.3599999999999999       ,  -0.56635137777903088       ,  -0.60138955942351224     
   3.3799999999999999       ,  -0.21317148308396852       ,  -0.23393515912091617     
   3.3999999999999999       ,   0.14888792687751129       ,   0.15436259686610398     
   3.4199999999999999       ,   0.51606532219491508       ,   0.55775109943929679     
   3.4399999999999999       ,   0.88434733339203320       ,   0.96999179130090518     
   3.4600000000000000       ,    1.2495220417136110       ,    1.3845048400705702     
   3.4800000000000000       ,    1.6072449180103265       ,    1.7945265767816765     
   3.5000000000000000       ,    1.9531160103007137       ,    2.1932750418580413     
   3.5200000000000000       ,    2.2827663680663468       ,    2.5741186244670340     
   3.5400000000000000       ,    2.5919511502320192       ,    2.9307425959151647     
   3.5600000000000001       ,    2.8766464198664372       ,    3.2573083330328787     
   3.5800000000000001       ,    3.1331463040457201       ,    3.5486002060917845     
   3.6000000000000001       ,    3.3581570090449842       ,    3.8001554635864641     
   3.6200000000000001       ,    3.5488841401416318       ,    4.0083729722177912     
   3.6400000000000001       ,    3.7031098864719856       ,    4.1705973471571358     
   3.6600000000000001       ,    3.8192568925596424       ,    4.2851758117803422     
   3.6800000000000002       ,    3.8964360406970679       ,    4.3514860291247981     
   3.7000000000000002       ,    3.9344758974150960       ,    4.3699341169462880     
   3.7200000000000002       ,    3.9339322122778513       ,    4.3419230592795657     
   3.7400000000000002       ,    3.8960765728724662       ,    4.2697927232629969     
   3.7600000000000002       ,    3.8228640870978352       ,    4.1567336440885052     
   3.7800000000000002       ,    3.7168807512009265       ,    4.0066776181080721     
   3.8000000000000003       ,    3.5812719368416603       ,    3.8241689119608298     
   3.8200000000000003       ,    3.4196541604387041       ,    3.6142205257254698     
   3.8400000000000003       ,    3.2360129524633447       ,    3.3821604173456792     
   3.8599999999999999       ,    3.0345901954817114       ,    3.1334728867894395     
   3.8799999999999999       ,    2.8197647240326784       ,    2.8736404212038735     
   3.8999999999999999       ,    2.5959302584805810       ,    2.6079912134949015     
   3.9199999999999999       ,    2.3673748663759424       ,    2.3415572903697899     
   3.9399999999999999       ,    2.1381661026814514       ,    2.0789477331476127     
   3.9600000000000000       ,    1.9120457753352358       ,    1.8242408634864344     
   3.9800000000000000       ,    1.6923379226373461       ,    1.5808985205174213     
   4.0000000000000000       ,    1.4818730879124158       ,    1.3517047046990160     
   4.0199999999999996       ,    1.2829313547292709       ,    1.1387299399150757     
   4.0400000000000000       ,    1.0972058875909694       ,   0.94332174447537265     
   4.0599999999999996       ,   0.92578793737615250       ,   0.76612064050488549     
   4.0800000000000001       ,   0.76917344962899103       ,   0.60710020628804873     
   4.0999999999999996       ,   0.62729059023159828       ,   0.46562882238425751     
   4.1199999999999992       ,   0.49954671029473069       ,   0.34055001166034649     
   4.1399999999999997       ,   0.38489254220552116       ,   0.23027765346185142     
   4.1599999999999993       ,   0.28190078097027305       ,   0.13290188531560146     
   4.1799999999999997       ,   0.18885568473156944       ,    4.6301208005996929E-002
   4.1999999999999993       ,   0.10384994616373687       ,   -3.1743808992147071E-002
   4.2199999999999998       ,    2.4884857157349342E-002  ,  -0.10343976260100909     
   4.2399999999999993       ,   -5.0030278751394021E-002  ,  -0.17087689432171543     
   4.2599999999999998       ,  -0.12278343658580979       ,  -0.23593671136805894     
   4.2799999999999994       ,  -0.19507355980493735       ,  -0.30021410161557782     
   4.2999999999999998       ,  -0.26833594680295952       ,  -0.36495662172165017     
   4.3199999999999994       ,  -0.34368210158421642       ,  -0.43102287214266499     
   4.3399999999999999       ,  -0.42185618011896642       ,  -0.49886104487613070     
   4.3599999999999994       ,  -0.50320944812884671       ,  -0.56850787359626243     
   4.3799999999999999       ,  -0.58769340065637210       ,  -0.63960736621054437     
   4.3999999999999995       ,  -0.67487141067074419       ,  -0.71144789088671168     
   4.4199999999999999       ,  -0.76394800560569498       ,  -0.78301545042266218     
   4.4399999999999995       ,  -0.85381414873201544       ,  -0.85306034530670949     
   4.4600000000000000       ,  -0.94310625610773047       ,  -0.92017391736598619     
   4.4799999999999995       ,   -1.0302761356246952       ,  -0.98287170256986389     
   4.5000000000000000       ,   -1.1136686140505490       ,   -1.0396791162816343     
   4.5199999999999996       ,   -1.1916033373013284       ,   -1.0892157533926072     
   4.5400000000000000       ,   -1.2624570988646331       ,   -1.1302745089069215     
   4.5599999999999996       ,   -1.3247430753552041       ,   -1.1618920045446497     
   4.5800000000000001       ,   -1.3771835241708776       ,   -1.1834072303168224     
