r(A) ,   X_ray-calc  ,   X_ray_exp_renorm
   2.0000000000000000E-002  ,   -2.6928274243970316       ,   -4.4773513163509522     
   4.0000000000000001E-002  ,   -2.7101637090047794       ,   -4.4537271912651706     
   5.9999999999999998E-002  ,   -2.7382560450325255       ,   -4.4148847052955080     
   8.0000000000000002E-002  ,   -2.7759372262251523       ,   -4.3616076891172479     
  0.10000000000000001       ,   -2.8216416767219572       ,   -4.2949683023865335     
  0.12000000000000001       ,   -2.8734705508734075       ,   -4.2163025307041533     
  0.13999999999999999       ,   -2.9292707153738302       ,   -4.1271796655340003     
  0.16000000000000000       ,   -2.9867243452672927       ,   -4.0293664762487893     
  0.17999999999999999       ,   -3.0434454250077665       ,   -3.9247869096851491     
  0.19999999999999998       ,   -3.0970791582709594       ,   -3.8154782606881130     
  0.22000000000000000       ,   -3.1454001675058274       ,   -3.7035448444729688     
  0.23999999999999999       ,   -3.1864054113789630       ,   -3.5911102659581773     
  0.26000000000000001       ,   -3.2183979634191351       ,   -3.4802694206489377     
  0.28000000000000003       ,   -3.2400581695104056       ,   -3.3730413747791976     
  0.30000000000000004       ,   -3.2504992200627831       ,   -3.2713242583795203     
  0.32000000000000001       ,   -3.2493048134406530       ,   -3.1768532634366231     
  0.34000000000000002       ,   -3.2365473242425189       ,   -3.0911627706870841     
  0.36000000000000004       ,   -3.2127856930236027       ,   -3.0155535338387200     
  0.38000000000000000       ,   -3.1790430900472928       ,   -2.9510657308119708     
  0.40000000000000002       ,   -3.1367652402862425       ,   -2.8984585502995306     
  0.42000000000000004       ,   -3.0877610958633110       ,   -2.8581968215697184     
  0.44000000000000000       ,   -3.0341282725768473       ,   -2.8304450196289985     
  0.46000000000000002       ,   -2.9781662990505615       ,   -2.8150687908089580     
  0.48000000000000004       ,   -2.9222812343769951       ,   -2.8116439502258554     
  0.50000000000000000       ,   -2.8688855719817052       ,   -2.8194727074106787     
  0.52000000000000002       ,   -2.8202975488785746       ,   -2.8376066850009023     
  0.54000000000000004       ,   -2.7786440121396332       ,   -2.8648761130835294     
  0.56000000000000005       ,   -2.7457708568047874       ,   -2.8999244138808185     
  0.58000000000000007       ,   -2.7231647471135711       ,   -2.9412472430372252     
  0.59999999999999998       ,   -2.7118893781017488       ,   -2.9872349294537117     
  0.62000000000000000       ,   -2.7125389457579883       ,   -3.0362171595122320     
  0.64000000000000001       ,   -2.7252107950432936       ,   -3.0865086869933647     
  0.66000000000000003       ,   -2.7494984346028888       ,   -3.1364548195103761     
  0.68000000000000005       ,   -2.7845052767356324       ,   -3.1844754373683415     
  0.70000000000000007       ,   -2.8288786149563099       ,   -3.2291063418491781     
  0.72000000000000008       ,   -2.8808625237578962       ,   -3.2690368063392117     
  0.73999999999999999       ,   -2.9383675896681423       ,   -3.3031423136306666     
  0.76000000000000001       ,   -2.9990546909741727       ,   -3.3305116032086102     
  0.78000000000000003       ,   -3.0604294637212281       ,   -3.3504673193946890     
  0.80000000000000004       ,   -3.1199436473744995       ,   -3.3625797399315598     
  0.82000000000000006       ,   -3.1750992129480253       ,   -3.3666732692350911     
  0.84000000000000008       ,   -3.2235510512855976       ,   -3.3628255947701788     
  0.85999999999999999       ,   -3.2632040446409278       ,   -3.3513596220663731     
  0.88000000000000000       ,   -3.2923005589467680       ,   -3.3328285168400167     
  0.90000000000000002       ,   -3.3094947685478018       ,   -3.3079943846492124     
  0.92000000000000004       ,   -3.3139107445958427       ,   -3.2778013028951074     
  0.94000000000000006       ,   -3.3051818818127670       ,   -3.2433435807620312     
  0.96000000000000008       ,   -3.2834699799787987       ,   -3.2058302545911705     
  0.97999999999999998       ,   -3.2494631064391593       ,   -3.1665469249107465     
   1.0000000000000000       ,   -3.2043522115705327       ,   -3.1268161037390048     
   1.0200000000000000       ,   -3.1497873165621044       ,   -3.0879572649448992     
   1.0400000000000000       ,   -3.0878149080874913       ,   -3.0512477758505652     
   1.0600000000000001       ,   -3.0207989248884575       ,   -3.0178858357265224     
   1.0800000000000001       ,   -2.9513283770489971       ,   -2.9889564585637771     
   1.1000000000000001       ,   -2.8821151737813451       ,   -2.9654014169844380     
   1.1200000000000001       ,   -2.8158861287586898       ,   -2.9479939160153013     
   1.1400000000000001       ,   -2.7552733480450908       ,   -2.9373185953205110     
   1.1600000000000001       ,   -2.7027072754734234       ,   -2.9337572727672740     
   1.1799999999999999       ,   -2.6603165715650863       ,   -2.9374806478047941     
   1.2000000000000000       ,   -2.6298387391818365       ,   -2.9484459872497339     
   1.2200000000000000       ,   -2.6125449929972411       ,   -2.9664006258459734     
   1.2400000000000000       ,   -2.6091823175868258       ,   -2.9908909362479537     
   1.2600000000000000       ,   -2.6199349928274165       ,   -3.0212762641315560     
   1.2800000000000000       ,   -2.6444071121563106       ,   -3.0567471894028682     
   1.3000000000000000       ,   -2.6816268091797748       ,   -3.0963473683457297     
   1.3200000000000001       ,   -2.7300720733407711       ,   -3.1389981371967908     
   1.3400000000000001       ,   -2.7877172088474440       ,   -3.1835250168941451     
   1.3600000000000001       ,   -2.8520982052731281       ,   -3.2286852520318012     
   1.3800000000000001       ,   -2.9203945737693702       ,   -3.2731955433719486     
   1.4000000000000001       ,   -2.9895245872367213       ,   -3.3157591902564478     
   1.4200000000000002       ,   -3.0562503694834580       ,   -3.3550919433012965     
   1.4399999999999999       ,   -3.1172889257374989       ,   -3.3899459741499451     
   1.4600000000000000       ,   -3.1694250074912294       ,   -3.4191314922210809     
   1.4800000000000000       ,   -3.2096216649826546       ,   -3.4415356721164891     
   1.5000000000000000       ,   -3.2351244606868779       ,   -3.4561386931111162     
   1.5200000000000000       ,   -3.2435555907038709       ,   -3.4620268273491583     
   1.5400000000000000       ,   -3.2329945755540117       ,   -3.4584026396894982     
   1.5600000000000001       ,   -3.2020427198398003       ,   -3.4445924738048053     
   1.5800000000000001       ,   -3.1498691790089506       ,   -3.4200514911775470     
   1.6000000000000001       ,   -3.0762371848357954       ,   -3.3843665981399820     
   1.6200000000000001       ,   -2.9815097403556434       ,   -3.3372576383877623     
   1.6400000000000001       ,   -2.8666348695229806       ,   -3.2785772431397251     
   1.6600000000000001       ,   -2.7331112662948636       ,   -3.2083097184244846     
   1.6800000000000002       ,   -2.5829359026623218       ,   -3.1265693103873189     
   1.7000000000000000       ,   -2.4185357980648239       ,   -3.0335981279301927     
   1.7200000000000000       ,   -2.2426866995995667       ,   -2.9297639215583784     
   1.7400000000000000       ,   -2.0584218536522441       ,   -2.8155578231874574     
   1.7600000000000000       ,   -1.8689343501485873       ,   -2.6915920498372601     
   1.7800000000000000       ,   -1.6774766811483228       ,   -2.5585974710890338     
   1.8000000000000000       ,   -1.4872611723449238       ,   -2.4174208425873709     
   1.8200000000000001       ,   -1.3013648213965054       ,   -2.2690214222657237     
   1.8400000000000001       ,   -1.1226418187486189       ,   -2.1144666184301393     
   1.8600000000000001       ,  -0.95364664781226882       ,   -1.9549262746206879     
   1.8800000000000001       ,  -0.79657017973912214       ,   -1.7916651794745708     
   1.9000000000000001       ,  -0.65319061511559406       ,   -1.6260334034988941     
   1.9200000000000002       ,  -0.52484050506491586       ,   -1.4594541100689891     
   1.9399999999999999       ,  -0.41239043369897971       ,   -1.2934085647996074     
   1.9600000000000000       ,  -0.31624928949379477       ,   -1.1294181737052689     
   1.9800000000000000       ,  -0.23638042143880433       ,  -0.96902351262176445     
   2.0000000000000000       ,  -0.17233239167985284       ,  -0.81376046300526994     
   2.0200000000000000       ,  -0.12328252226059945       ,  -0.66513373589294900     
   2.0400000000000000       ,   -8.8091008478678068E-002  ,  -0.52458823882780625     
   2.0600000000000001       ,   -6.5363050181871468E-002  ,  -0.39347891145889780     
   2.0800000000000001       ,   -5.3516245225401333E-002  ,  -0.27303981544232941     
   2.1000000000000001       ,   -5.0850401467069317E-002  ,  -0.16435340428530798     
   2.1200000000000001       ,   -5.5616955131733120E-002  ,   -6.8321010387685219E-002
   2.1400000000000001       ,   -6.6085329139578486E-002  ,    1.4364337947577167E-002
   2.1600000000000001       ,   -8.0603815359002629E-002  ,    8.3241623822887176E-002
   2.1800000000000002       ,   -9.7652905806532991E-002  ,   0.13810094220635186     
   2.2000000000000002       ,  -0.11588941214637030       ,   0.17899692744574389     
   2.2200000000000002       ,  -0.13418018031796944       ,   0.20625555826399855     
   2.2400000000000002       ,  -0.15162470584789686       ,   0.22047355732966403     
   2.2600000000000002       ,  -0.16756646270469078       ,   0.22250981567694725     
   2.2800000000000002       ,  -0.18159325197588638       ,   0.21346852606256059     
   2.3000000000000003       ,  -0.19352733492584062       ,   0.19467399579076219     
   2.3200000000000003       ,  -0.20340651898196679       ,   0.16763741874312221     
   2.3399999999999999       ,  -0.21145769865636746       ,   0.13401620690796873     
   2.3599999999999999       ,  -0.21806460367490416       ,    9.5566801086647099E-002
   2.3799999999999999       ,  -0.22373166505839706       ,    5.4092185488334214E-002
   2.3999999999999999       ,  -0.22904597235923327       ,    1.1385608324391842E-002
   2.4199999999999999       ,  -0.23463926196018134       ,   -3.0827752572626037E-002
   2.4399999999999999       ,  -0.24115175194125288       ,   -7.0949255507856024E-002
   2.4600000000000000       ,  -0.24919943226547120       ,  -0.10756334655858436     
   2.4800000000000000       ,  -0.25934614231107034       ,  -0.13949010064524300     
   2.5000000000000000       ,  -0.27208143647866390       ,  -0.16583168147780403     
   2.5200000000000000       ,  -0.28780487037607938       ,  -0.18601075555597929     
   2.5400000000000000       ,  -0.30681695398765019       ,  -0.19979908100876953     
   2.5600000000000001       ,  -0.32931663383345755       ,  -0.20733475437086099     
   2.5800000000000001       ,  -0.35540480257414941       ,  -0.20912693107575381     
   2.6000000000000001       ,  -0.38509300968042487       ,  -0.20604722911930787     
   2.6200000000000001       ,  -0.41831627640823638       ,  -0.19930746784144920     
   2.6400000000000001       ,  -0.45494871531281417       ,  -0.19042387049994675     
   2.6600000000000001       ,  -0.49482052839035040       ,  -0.18116835374827395     
   2.6800000000000002       ,  -0.53773491431062892       ,  -0.17350802140571187     
   2.7000000000000002       ,  -0.58348345566622140       ,  -0.16953445544435711     
   2.7200000000000002       ,  -0.63185867914594429       ,  -0.17138483533662383     
   2.7400000000000002       ,  -0.68266267846759654       ,  -0.18115729994933769     
   2.7600000000000002       ,  -0.73571095151912769       ,  -0.20082327761700106     
   2.7800000000000002       ,  -0.79083091600213351       ,  -0.23213973557808851     
   2.8000000000000003       ,  -0.84785491592817741       ,  -0.27656442805611392     
   2.8200000000000003       ,  -0.90660789675850695       ,  -0.33517724462569770     
   2.8399999999999999       ,  -0.96689029099996737       ,  -0.40861067252861999     
   2.8599999999999999       ,   -1.0284569997816415       ,  -0.49699218767985731     
   2.8799999999999999       ,   -1.0909936612453968       ,  -0.59990108273309461     
   2.8999999999999999       ,   -1.1540916470495122       ,  -0.71634183436871068     
   2.9199999999999999       ,   -1.2172234099073436       ,  -0.84473561746698200     
   2.9399999999999999       ,   -1.2797199069747709       ,  -0.98293100618045393     
   2.9600000000000000       ,   -1.3407518388258004       ,   -1.1282342793961608     
   2.9800000000000000       ,   -1.3993163685058432       ,   -1.2774590914756074     
   3.0000000000000000       ,   -1.4542308207394148       ,   -1.4269946010774108     
   3.0200000000000000       ,   -1.5041346130326749       ,   -1.5728904949043949     
   3.0400000000000000       ,   -1.5475003474320370       ,   -1.7109567231168361     
   3.0600000000000001       ,   -1.5826546070297141       ,   -1.8368752019192753     
   3.0800000000000001       ,   -1.6078085710333427       ,   -1.9463202578488559     
   3.1000000000000001       ,   -1.6210981048779611       ,   -2.0350842065161889     
   3.1200000000000001       ,   -1.6206325176463843       ,   -2.0992041917249491     
   3.1400000000000001       ,   -1.6045507289426726       ,   -2.1350862709317107     
   3.1600000000000001       ,   -1.5710831721452989       ,   -2.1396227274528852     
   3.1800000000000002       ,   -1.5186174003856965       ,   -2.1102987215166960     
   3.2000000000000002       ,   -1.4457650734203222       ,   -2.0452846591258709     
   3.2200000000000002       ,   -1.3514278027742248       ,   -1.9435110527660482     
   3.2400000000000002       ,   -1.2348592306347654       ,   -1.8047231595576665     
   3.2600000000000002       ,   -1.0957207224305145       ,   -1.6295132944280315     
   3.2800000000000002       ,  -0.93412816688201494       ,   -1.4193294083525010     
   3.3000000000000003       ,  -0.75068759897241255       ,   -1.1764592715919173     
   3.3200000000000003       ,  -0.54651768454277860       ,  -0.90399038369239559     
   3.3400000000000003       ,  -0.32325751942328429       ,  -0.60574651891326425     
   3.3599999999999999       ,   -8.3058686476794805E-002  ,  -0.28620258032638335     
   3.3799999999999999       ,   0.17143893751381883       ,    4.9619848783480004E-002
   3.3999999999999999       ,   0.43714754746936918       ,   0.39627322675506133     
   3.4199999999999999       ,   0.71058727047913472       ,   0.74801747579823630     
   3.4399999999999999       ,   0.98795625293410194       ,    1.0989621055365046     
   3.4600000000000000       ,    1.2652131490115113       ,    1.4432127450600960     
   3.4800000000000000       ,    1.5381696842535293       ,    1.7750176405546632     
   3.5000000000000000       ,    1.8025905441449439       ,    2.0889096747468816     
   3.5200000000000000       ,    2.0542975089239071       ,    2.3798396133939197     
   3.5400000000000000       ,    2.2892745368112384       ,    2.6432965779461011     
   3.5600000000000001       ,    2.5037703986362696       ,    2.8754121722216794     
   3.5800000000000001       ,    2.6943954929927902       ,    3.0730452394699785     
   3.6000000000000001       ,    2.8582096231369132       ,    3.2338448752547206     
   3.6200000000000001       ,    2.9927977903744973       ,    3.3562900482162723     
   3.6400000000000001       ,    3.0963314443340235       ,    3.4397049592313285     
   3.6600000000000001       ,    3.1676131144031290       ,    3.4842500721869687     
   3.6800000000000002       ,    3.2061029108475303       ,    3.4908895480991382     
   3.7000000000000002       ,    3.2119260075598928       ,    3.4613365804221998     
   3.7200000000000002       ,    3.1858608773784778       ,    3.3979788361654890     
   3.7400000000000002       ,    3.1293087203376850       ,    3.3037868301608748     
   3.7600000000000002       ,    3.0442451794316345       ,    3.1822085769856998     
   3.7800000000000002       ,    2.9331560523867810       ,    3.0370542590722458     
   3.8000000000000003       ,    2.7989592579958087       ,    2.8723749074691205     
   3.8200000000000003       ,    2.6449157807054573       ,    2.6923392056698461     
   3.8400000000000003       ,    2.4745326796657507       ,    2.5011124943499707     
   3.8599999999999999       ,    2.2914614946899432       ,    2.3027418786301030     
   3.8799999999999999       ,    2.0993955025074520       ,    2.1010510277730798     
   3.8999999999999999       ,    1.9019692682478491       ,    1.8995478231397489     
   3.9199999999999999       ,    1.7026638003343135       ,    1.7013474713106733     
   3.9399999999999999       ,    1.5047203580226745       ,    1.5091130768112810     
   3.9600000000000000       ,    1.3110655906430597       ,    1.3250149870447847     
   3.9800000000000000       ,    1.1242502214881200       ,    1.1507095070036486     
   4.0000000000000000       ,   0.94640294626660171       ,   0.98733686022300382     
   4.0199999999999996       ,   0.77920061806434149       ,   0.83553757230818171     
   4.0400000000000000       ,   0.62385516181880252       ,   0.69548580015420502     
   4.0599999999999996       ,   0.48111702646215543       ,   0.56693754752620784     
   4.0800000000000001       ,   0.35129436719286278       ,   0.44929121684390849     
   4.0999999999999996       ,   0.23428657787735557       ,   0.34165756490305410     
   4.1199999999999992       ,   0.12963028647609345       ,   0.24293586957215893     
   4.1399999999999997       ,    3.6555503893845778E-002  ,   0.15189298308386487     
   4.1599999999999993       ,   -4.5950705587690266E-002  ,    6.7241948155534470E-002
   4.1799999999999997       ,  -0.11907587471765656       ,   -1.2283016575752983E-002
   4.1999999999999993       ,  -0.18411203912721885       ,   -8.7858102844754676E-002
   4.2199999999999998       ,  -0.24238680517473066       ,  -0.16051064920735772     
   4.2399999999999993       ,  -0.29519834115777077       ,  -0.23107114957154481     
   4.2599999999999998       ,  -0.34375679884190641       ,  -0.30013812504267462     
   4.2799999999999994       ,  -0.38913432086814037       ,  -0.36805686781207186     
   4.2999999999999998       ,  -0.43222535738460693       ,  -0.43491245562587966     
   4.3199999999999994       ,  -0.47371852148638910       ,  -0.50053682238863417     
   4.3399999999999999       ,  -0.51408067934182622       ,  -0.56452907936397811     
   4.3599999999999994       ,  -0.55355342022849441       ,  -0.62628773571276986     
   4.3799999999999999       ,  -0.59216150751116825       ,  -0.68505298811426252     
   4.3999999999999995       ,  -0.62973239671550030       ,  -0.73995685535077604     
   4.4199999999999999       ,  -0.66592544261247977       ,  -0.79007863973958969     
   4.4399999999999995       ,  -0.70026902255458501       ,  -0.83450301369002711     
   4.4600000000000000       ,  -0.73220349394036777       ,  -0.87237796237281540     
   4.4799999999999995       ,  -0.76112769156143467       ,  -0.90296986364426968     
   4.5000000000000000       ,  -0.78644656335121799       ,  -0.92571315031200119     
   4.5199999999999996       ,  -0.80761754378732864       ,  -0.94025226930619377     
   4.5400000000000000       ,  -0.82419337131889536       ,  -0.94647401485948013     
   4.5599999999999996       ,  -0.83585926356964813       ,  -0.94452875225525523     
   4.5800000000000001       ,  -0.84246266133317738       ,  -0.93483954595495833     
