r(A) ,   X_ray-calc  ,   X_ray_exp_renorm
   2.0000000000000000E-002  ,   -1.1405902650535455       ,   -3.0346399492999065     
   4.0000000000000001E-002  ,   -1.1923214255264409       ,   -3.0484575138322225     
   5.9999999999999998E-002  ,   -1.2767317816993391       ,   -3.0709905866140903     
   8.0000000000000002E-002  ,   -1.3911766816603182       ,   -3.1015135283309445     
  0.10000000000000001       ,   -1.5320864357003130       ,   -3.1390470576640812     
  0.12000000000000001       ,   -1.6950931578178909       ,   -3.1823932310872496     
  0.13999999999999999       ,   -1.8751855601343046       ,   -3.2301781519228987     
  0.16000000000000000       ,   -2.0668859242606112       ,   -3.2809008281942251     
  0.17999999999999999       ,   -2.2644426574577645       ,   -3.3329863733946703     
  0.19999999999999998       ,   -2.4620312769421844       ,   -3.3848415867734976     
  0.22000000000000000       ,   -2.6539563741328420       ,   -3.4349108659485288     
  0.23999999999999999       ,   -2.8348471026797926       ,   -3.4817303976539891     
  0.26000000000000001       ,   -2.9998390094741092       ,   -3.5239786423415107     
  0.28000000000000003       ,   -3.1447355753019570       ,   -3.5605212724019597     
  0.30000000000000004       ,   -3.2661436296816322       ,   -3.5904489363814469     
  0.32000000000000001       ,   -3.3615778214002452       ,   -3.6131064945631106     
  0.34000000000000002       ,   -3.4295305226474411       ,   -3.6281126942484518     
  0.36000000000000004       ,   -3.4695048738935630       ,   -3.6353696136980447     
  0.38000000000000000       ,   -3.4820100872310511       ,   -3.6350615882966948     
  0.40000000000000002       ,   -3.4685195632408106       ,   -3.6276437265317187     
  0.42000000000000004       ,   -3.4313937851313230       ,   -3.6138205119485418     
  0.44000000000000000       ,   -3.3737712797739321       ,   -3.5945153557555933     
  0.46000000000000002       ,   -3.2994321275508600       ,   -3.5708322993867867     
  0.48000000000000004       ,   -3.2126395162053489       ,   -3.5440113546097569     
  0.50000000000000000       ,   -3.1179656297992682       ,   -3.5153792000172608     
  0.52000000000000002       ,   -3.0201087126621986       ,   -3.4862971184670792     
  0.54000000000000004       ,   -2.9237084297804561       ,   -3.4581081542702679     
  0.56000000000000005       ,   -2.8331666497912988       ,   -3.4320854884147183     
  0.58000000000000007       ,   -2.7524805057802659       ,   -3.4093839744352827     
  0.59999999999999998       ,   -2.6850940542978323       ,   -3.3909966491218468     
  0.62000000000000000       ,   -2.6337740765036286       ,   -3.3777178362445626     
  0.64000000000000001       ,   -2.6005145785146300       ,   -3.3701142055436533     
  0.66000000000000003       ,   -2.5864733903457147       ,   -3.3685048432662579     
  0.68000000000000005       ,   -2.5919429802450242       ,   -3.3729510462608578     
  0.70000000000000007       ,   -2.6163562443809774       ,   -3.3832561821495100     
  0.72000000000000008       ,   -2.6583266540503785       ,   -3.3989755773673305     
  0.73999999999999999       ,   -2.7157207977597175       ,   -3.4194360171931795     
  0.76000000000000001       ,   -2.7857600960753359       ,   -3.4437640814059769     
  0.78000000000000003       ,   -2.8651473418736764       ,   -3.4709222092663587     
  0.80000000000000004       ,   -2.9502127709261008       ,   -3.4997511002884045     
  0.82000000000000006       ,   -3.0370736338634359       ,   -3.5290168232021233     
  0.84000000000000008       ,   -3.1218007482040031       ,   -3.5574608330230131     
  0.85999999999999999       ,   -3.2005852764328644       ,   -3.5838509912942338     
  0.88000000000000000       ,   -3.2698990109866317       ,   -3.6070316508359426     
  0.90000000000000002       ,   -3.3266417467931522       ,   -3.6259709045400559     
  0.92000000000000004       ,   -3.3682698737411538       ,   -3.6398032060198182     
  0.94000000000000006       ,   -3.3929011022752271       ,   -3.6478657438109718     
  0.96000000000000008       ,   -3.3993912135067088       ,   -3.6497271834820499     
  0.97999999999999998       ,   -3.3873798614574344       ,   -3.6452076744844573     
   1.0000000000000000       ,   -3.3573037039267124       ,   -3.6343893401452920     
   1.0200000000000000       ,   -3.3103764503666535       ,   -3.6176168178205774     
   1.0400000000000000       ,   -3.2485367381590340       ,   -3.5954877789543676     
   1.0600000000000001       ,   -3.1743660306665462       ,   -3.5688337223133804     
   1.0800000000000001       ,   -3.0909799210533166       ,   -3.5386916847860190     
   1.1000000000000001       ,   -3.0018972785761955       ,   -3.5062678402491088     
   1.1200000000000001       ,   -2.9108925478769021       ,   -3.4728942465728738     
   1.1400000000000001       ,   -2.8218371729605702       ,   -3.4399802437878577     
   1.1600000000000001       ,   -2.7385365407097555       ,   -3.4089601945276686     
   1.1799999999999999       ,   -2.6645690080626041       ,   -3.3812393849423055     
   1.2000000000000000       ,   -2.6031334865111240       ,   -3.3581399664917733     
   1.2200000000000000       ,   -2.5569117116893909       ,   -3.3408488149216620     
   1.2400000000000000       ,   -2.5279507388643241       ,   -3.3303691132446360     
   1.2600000000000000       ,   -2.5175704008594018       ,   -3.3274773339899557     
   1.2800000000000000       ,   -2.5262994755139587       ,   -3.3326871077977129     
   1.3000000000000000       ,   -2.5538431745340153       ,   -3.3462212280118742     
   1.3200000000000001       ,   -2.5990833294288902       ,   -3.3679927632817201     
   1.3400000000000001       ,   -2.6601113618523238       ,   -3.3975959425883775     
   1.3600000000000001       ,   -2.7342928356622904       ,   -3.4343071507068750     
   1.3800000000000001       ,   -2.8183611468554206       ,   -3.4770960384702505     
   1.4000000000000001       ,   -2.9085367636219606       ,   -3.5246464229004770     
   1.4200000000000002       ,   -3.0006674265437567       ,   -3.5753863384808091     
   1.4399999999999999       ,   -3.0903838971832025       ,   -3.6275263129298696     
   1.4600000000000000       ,   -3.1732652335762896       ,   -3.6791046880028988     
   1.4800000000000000       ,   -3.2450071966684928       ,   -3.7280385958341555     
   1.5000000000000000       ,   -3.3015872664957584       ,   -3.7721790401930289     
   1.5200000000000000       ,   -3.3394198751448116       ,   -3.8093684239353975     
   1.5400000000000000       ,   -3.3554958395855885       ,   -3.8374988111123653     
   1.5600000000000001       ,   -3.3475005861074516       ,   -3.8545692148975785     
   1.5800000000000001       ,   -3.3139065750864063       ,   -3.8587402590378241     
   1.6000000000000001       ,   -3.2540363279555682       ,   -3.8483846674535052     
   1.6200000000000001       ,   -3.1680935886329746       ,   -3.8221321888494058     
   1.6400000000000001       ,   -3.0571613752098079       ,   -3.7789077543076646     
   1.6600000000000001       ,   -2.9231669469265400       ,   -3.7179618883215793     
   1.6800000000000002       ,   -2.7688149773060435       ,   -3.6388926393140815     
   1.7000000000000000       ,   -2.5974914380587695       ,   -3.5416585556636644     
   1.7200000000000000       ,   -2.4131418135424512       ,   -3.4265824988183771     
   1.7400000000000000       ,   -2.2201282396800877       ,   -3.2943463476184562     
   1.7600000000000000       ,   -2.0230709574847436       ,   -3.1459768993844497     
   1.7800000000000000       ,   -1.8266800599054123       ,   -2.9828235063501793     
   1.8000000000000000       ,   -1.6355838699318359       ,   -2.8065281943159706     
   1.8200000000000001       ,   -1.4541604050378638       ,   -2.6189891888181966     
   1.8400000000000001       ,   -1.2863782547270273       ,   -2.4223189187951792     
   1.8600000000000001       ,   -1.1356528302248146       ,   -2.2187976761546282     
   1.8800000000000001       ,   -1.0047233534313811       ,   -2.0108241806432114     
   1.9000000000000001       ,  -0.89555515978693689       ,   -1.8008643331110092     
   1.9200000000000002       ,  -0.80927092790925736       ,   -1.5913994379825531     
   1.9399999999999999       ,  -0.74611335520259703       ,   -1.3848751398841277     
   1.9600000000000000       ,  -0.70544061535106273       ,   -1.1836522532218019     
   1.9800000000000000       ,  -0.68575470605655253       ,  -0.98996057103878110     
   2.0000000000000000       ,  -0.68476157027263351       ,  -0.80585662517771883     
   2.0200000000000000       ,  -0.69946069778068509       ,  -0.63318623838327281     
   2.0400000000000000       ,  -0.72626083028867006       ,  -0.47355256532277951     
   2.0600000000000001       ,  -0.76111744245145696       ,  -0.32829016827869417     
   2.0800000000000001       ,  -0.79968688806412958       ,  -0.19844551888942416     
   2.1000000000000001       ,  -0.83749151323937632       ,   -8.4764163772019521E-002
   2.1200000000000001       ,  -0.87008966703364854       ,    1.2315357389856020E-002
   2.1400000000000001       ,  -0.89324439672913103       ,    9.2660894804209346E-002
   2.1600000000000001       ,  -0.90308470303910160       ,   0.15643955878979349     
   2.1800000000000002       ,  -0.89625354431723459       ,   0.20410438516305454     
   2.2000000000000002       ,  -0.87003730436189941       ,   0.23637521334226080     
   2.2200000000000002       ,  -0.82247215370466875       ,   0.25421429177869043     
   2.2400000000000002       ,  -0.75242361052109341       ,   0.25879720969086711     
   2.2600000000000002       ,  -0.65963660992164996       ,   0.25147982594704210     
   2.2800000000000002       ,  -0.54475448044221564       ,   0.23376192570738130     
   2.3000000000000003       ,  -0.40930636232129347       ,   0.20724838357607281     
   2.3200000000000003       ,  -0.25566374071497294       ,   0.17360864897484998     
   2.3399999999999999       ,   -8.6967865934299574E-002  ,   0.13453539556605995     
   2.3599999999999999       ,    9.2969148234238810E-002  ,    9.1703191968721870E-002
   2.3799999999999999       ,   0.27978585475970252       ,    4.6728055635441704E-002
   2.3999999999999999       ,   0.46871118489778418       ,    1.1287452487015424E-003
   2.4199999999999999       ,   0.65471731394173627       ,   -4.3709371226936217E-002
   2.4399999999999999       ,   0.83268026698250508       ,   -8.6567066410437030E-002
   2.4600000000000000       ,   0.99754266707312966       ,  -0.12641985895822844     
   2.4800000000000000       ,    1.1444730516687553       ,  -0.16246177068960097     
   2.5000000000000000       ,    1.2690164088003602       ,  -0.19412360504053042     
   2.5200000000000000       ,    1.3672309998008831       ,  -0.22108520587645059     
   2.5400000000000000       ,    1.4358071212280088       ,  -0.24328126117020638     
   2.5600000000000001       ,    1.4721641895061961       ,  -0.26090033747242630     
   2.5800000000000001       ,    1.4745233773166422       ,  -0.27437696773827464     
   2.6000000000000001       ,    1.4419539567263282       ,  -0.28437676553590469     
   2.6200000000000001       ,    1.3743924739438911       ,  -0.29177470082869278     
   2.6400000000000001       ,    1.2726348570037378       ,  -0.29762684352115060     
   2.6600000000000001       ,    1.1383025037718519       ,  -0.30313605716347419     
   2.6800000000000002       ,   0.97378427859293926       ,  -0.30961230230104675     
   2.7000000000000002       ,   0.78215713012833943       ,  -0.31842838200360174     
   2.7200000000000002       ,   0.56708870340773976       ,  -0.33097212571177154     
   2.7400000000000002       ,   0.33272583421227980       ,  -0.34859615598805122     
   2.7600000000000002       ,    8.3573168163169800E-002  ,  -0.37256651024428578     
   2.7800000000000002       ,  -0.17563366851310755       ,  -0.40401149035069878     
   2.8000000000000003       ,  -0.44005590662011446       ,  -0.44387218188979927     
   2.8200000000000003       ,  -0.70487619402229573       ,  -0.49285611699262633     
   2.8399999999999999       ,  -0.96541590166167535       ,  -0.55139554632969301     
   2.8599999999999999       ,   -1.2172416474057361       ,  -0.61961173415072801     
   2.8799999999999999       ,   -1.4562580744566227       ,  -0.69728659377911273     
   2.8999999999999999       ,   -1.6787845765222198       ,  -0.78384283961020773     
   2.9199999999999999       ,   -1.8816143790828570       ,  -0.87833364692735905     
   2.9399999999999999       ,   -2.0620551343148028       ,  -0.97944258583050092     
   2.9600000000000000       ,   -2.2179509356076728       ,   -1.0854943349665378     
   2.9800000000000000       ,   -2.3476863760748823       ,   -1.1944763907859530     
   3.0000000000000000       ,   -2.4501739360239374       ,   -1.3040716763538198     
   3.0200000000000000       ,   -2.5248265622141877       ,   -1.4117016291447952     
   3.0400000000000000       ,   -2.5715177761772861       ,   -1.5145790195289037     
   3.0600000000000001       ,   -2.5905320040583351       ,   -1.6097694312292121     
   3.0800000000000001       ,   -2.5825080458901963       ,   -1.6942600326248070     
   3.1000000000000001       ,   -2.5483786931691395       ,   -1.7650339940268580     
   3.1200000000000001       ,   -2.4893094610398125       ,   -1.8191486711541964     
   3.1400000000000001       ,   -2.4066392318803973       ,   -1.8538154883040137     
   3.1600000000000001       ,   -2.3018253223397616       ,   -1.8664793242538849     
   3.1800000000000002       ,   -2.1763951022111350       ,   -1.8548951362712456     
   3.2000000000000002       ,   -2.0319058310061502       ,   -1.8171995574021504     
   3.2200000000000002       ,   -1.8699138596342284       ,   -1.7519752720086523     
   3.2400000000000002       ,   -1.6919537949291428       ,   -1.6583061145819555     
   3.2600000000000002       ,   -1.4995276693592208       ,   -1.5358210450609684     
   3.2800000000000002       ,   -1.2941036222022093       ,   -1.3847254257281834     
   3.3000000000000003       ,   -1.0771231054237054       ,   -1.2058183534256564     
   3.3200000000000003       ,  -0.85001519872086628       ,   -1.0004951773813899     
   3.3400000000000003       ,  -0.61421627165544845       ,  -0.77073474651638474     
   3.3599999999999999       ,  -0.37119298049414623       ,  -0.51907136830853695     
   3.3799999999999999       ,  -0.12246644277454642       ,  -0.24855191054161058     
   3.3999999999999999       ,   0.13036460164512859       ,    3.7321076735313242E-002
   3.4199999999999999       ,   0.38560375854653761       ,   0.33465891351442539     
   3.4399999999999999       ,   0.64144201125931877       ,   0.63926731475418830     
   3.4600000000000000       ,   0.89594947585867390       ,   0.94673583573002151     
   3.4800000000000000       ,    1.1470751822096714       ,    1.2525338928899059     
   3.5000000000000000       ,    1.3926557627160443       ,    1.5521107909037357     
   3.5200000000000000       ,    1.6304334659227242       ,    1.8409970389389043     
   3.5400000000000000       ,    1.8580834250463567       ,    2.1149041742146735     
   3.5600000000000001       ,    2.0732496244892387       ,    2.3698203318181301     
   3.5800000000000001       ,    2.2735885426535436       ,    2.6020989069775284     
   3.6000000000000001       ,    2.4568190279815134       ,    2.8085378469341289     
   3.6200000000000001       ,    2.6207766061163817       ,    2.9864473788107886     
   3.6400000000000001       ,    2.7634701355650968       ,    3.1337043193053349     
   3.6600000000000001       ,    2.8831385398803038       ,    3.2487915110312047     
   3.6800000000000002       ,    2.9783052547577937       ,    3.3308213761608383     
   3.7000000000000002       ,    3.0478280427865925       ,    3.3795430562756974     
   3.7200000000000002       ,    3.0909419465867143       ,    3.3953331023640807     
   3.7400000000000002       ,    3.1072933679446084       ,    3.3791701744444764     
   3.7600000000000002       ,    3.0969635672873266       ,    3.3325946899421899     
   3.7800000000000002       ,    3.0604802615735465       ,    3.2576548078097001     
   3.8000000000000003       ,    2.9988164433175570       ,    3.1568405365976280     
   3.8200000000000003       ,    2.9133760303414422       ,    3.0330080959761019     
   3.8400000000000003       ,    2.8059664645665578       ,    2.8892969313444490     
   3.8599999999999999       ,    2.6787588874270232       ,    2.7290419713800507     
   3.8799999999999999       ,    2.5342370080667198       ,    2.5556838226646583     
   3.8999999999999999       ,    2.3751362280367063       ,    2.3726796108776567     
   3.9199999999999999       ,    2.2043749741879100       ,    2.1834171045503670     
   3.9399999999999999       ,    2.0249805038346516       ,    1.9911345982170485     
   3.9600000000000000       ,    1.8400116702239162       ,    1.7988487931394239     
   3.9800000000000000       ,    1.6524812627687968       ,    1.6092926045396341     
   4.0000000000000000       ,    1.4652805603422383       ,    1.4248644557952779     
   4.0199999999999996       ,    1.2811086563837544       ,    1.2475902056877228     
   4.0400000000000000       ,    1.1024089351041431       ,    1.0790984094323630     
   4.0599999999999996       ,   0.93131480622723184       ,   0.92060915372221930     
   4.0800000000000001       ,   0.76960645277068807       ,   0.77293624664806238     
   4.0999999999999996       ,   0.61867992688104190       ,   0.63650210119814921     
   4.1199999999999992       ,   0.47952945986682255       ,   0.51136424139092596     
   4.1399999999999997       ,   0.35274335338619356       ,   0.39725199693475249     
   4.1599999999999993       ,   0.23851330940479246       ,   0.29361164779133547     
   4.1799999999999997       ,   0.13665655747130204       ,   0.19965804403791398     
   4.1999999999999993       ,    4.6649668904149268E-002  ,   0.11443056626858993     
   4.2199999999999998       ,   -3.2327472908968119E-002  ,    3.6851211886499022E-002
   4.2399999999999993       ,  -0.10133943241577041       ,   -3.4217405531206828E-002
   4.2599999999999998       ,  -0.16163687545064137       ,   -9.9916274629537546E-002
   4.2799999999999994       ,  -0.21459446840175295       ,  -0.16133839561986987     
   4.2999999999999998       ,  -0.26164746839243941       ,  -0.21948312767379913     
   4.3199999999999994       ,  -0.30422944563775761       ,  -0.27521793660249727     
   4.3399999999999999       ,  -0.34371347866392105       ,  -0.32924867311786693     
   4.3599999999999994       ,  -0.38135897169461630       ,  -0.38209914624950109     
   4.3799999999999999       ,  -0.41826597017605061       ,  -0.43410037134798174     
   4.3999999999999995       ,  -0.45533850731943243       ,  -0.48538948241504254     
   4.4199999999999999       ,  -0.49325811656324164       ,  -0.53591791908714725     
   4.4399999999999995       ,  -0.53246820892189262       ,  -0.58546814366792932     
   4.4600000000000000       ,  -0.57316955854341090       ,  -0.63367782621698243     
   4.4799999999999995       ,  -0.61532668325719175       ,  -0.68007016728624026     
   4.5000000000000000       ,  -0.65868446804434044       ,  -0.72408881783245427     
   4.5199999999999996       ,  -0.70279397581348524       ,  -0.76513571112506451     
   4.5400000000000000       ,  -0.74704603752456278       ,  -0.80261004649349665     
   4.5599999999999996       ,  -0.79071092615073035       ,  -0.83594666114119731     
   4.5800000000000001       ,  -0.83298220692276181       ,  -0.86465209283809707     
