r(A) ,   X_ray-calc  ,   X_ray_exp_renorm
   2.0000000000000000E-002  ,   -1.7199222713055289       ,   -4.0903927959126261     
   4.0000000000000001E-002  ,   -1.7506032389456132       ,   -4.1090174984685524     
   5.9999999999999998E-002  ,   -1.8007749638266668       ,   -4.1393898392129591     
   8.0000000000000002E-002  ,   -1.8690259073326321       ,   -4.1805317285291803     
  0.10000000000000001       ,   -1.9534452986480526       ,   -4.2311231926087522     
  0.12000000000000001       ,   -2.0516857553552224       ,   -4.2895495227377713     
  0.13999999999999999       ,   -2.1610399618275289       ,   -4.3539588428564517     
  0.16000000000000000       ,   -2.2785287229968532       ,   -4.4223279650837881     
  0.17999999999999999       ,   -2.4009973204511321       ,   -4.4925340990629552     
  0.19999999999999998       ,   -2.5252168184140493       ,   -4.5624297686576956     
  0.22000000000000000       ,   -2.6479868088561944       ,   -4.6299181765926587     
  0.23999999999999999       ,   -2.7662360531881012       ,   -4.6930262481911358     
  0.26000000000000001       ,   -2.8771175734345240       ,   -4.7499726795955137     
  0.28000000000000003       ,   -2.9780949645440926       ,   -4.7992285100202876     
  0.30000000000000004       ,   -3.0670170330871627       ,   -4.8395680241588366     
  0.32000000000000001       ,   -3.1421783033762241       ,   -4.8701081588396011     
  0.34000000000000002       ,   -3.2023634536336996       ,   -4.8903350233482250     
  0.36000000000000004       ,   -3.2468743327668941       ,   -4.9001166289202400     
  0.38000000000000000       ,   -3.2755388407615689       ,   -4.8997014413185180     
  0.40000000000000002       ,   -3.2887016093118988       ,   -4.8897029015143039     
  0.42000000000000004       ,   -3.2871970700385842       ,   -4.8710705832518277     
  0.44000000000000000       ,   -3.2723061217098102       ,   -4.8450491529883060     
  0.46000000000000002       ,   -3.2456981825973683       ,   -4.8131267487576137     
  0.48000000000000004       ,   -3.2093609187443044       ,   -4.7769747830785079     
  0.50000000000000000       ,   -3.1655203554852069       ,   -4.7383814867292582     
  0.52000000000000002       ,   -3.1165543934098006       ,   -4.6991817335952994     
  0.54000000000000004       ,   -3.0649029503574008       ,   -4.6611858138152682     
  0.56000000000000005       ,   -3.0129780315165084       ,   -4.6261098487174852     
  0.58000000000000007       ,   -2.9630769883095396       ,   -4.5955104659936090     
  0.59999999999999998       ,   -2.9173020660407758       ,   -4.5707261804590003     
  0.62000000000000000       ,   -2.8774890672561519       ,   -4.5528276615444101     
  0.64000000000000001       ,   -2.8451475835135902       ,   -4.5425787236930004     
  0.66000000000000003       ,   -2.8214147875766793       ,   -4.5404094634263945     
  0.68000000000000005       ,   -2.8070242488100843       ,   -4.5464025027991450     
  0.70000000000000007       ,   -2.8022906570678834       ,   -4.5602928009248149     
  0.72000000000000008       ,   -2.8071107365553911       ,   -4.5814809820696354     
  0.73999999999999999       ,   -2.8209800237401352       ,   -4.6090596197542029     
  0.76000000000000001       ,   -2.8430245950563791       ,   -4.6418514303996421     
  0.78000000000000003       ,   -2.8720462826511786       ,   -4.6784578853354928     
  0.80000000000000004       ,   -2.9065794298039198       ,   -4.7173163628223955     
  0.82000000000000006       ,   -2.9449568294997968       ,   -4.7567636462475900     
  0.84000000000000008       ,   -2.9853821744467566       ,   -4.7951033421594813     
  0.85999999999999999       ,   -3.0260061354682142       ,   -4.8306746504791054     
  0.88000000000000000       ,   -3.0650030845680911       ,   -4.8619198737603000     
  0.90000000000000002       ,   -3.1006454917161790       ,   -4.8874481038652053     
  0.92000000000000004       ,   -3.1313731489274526       ,   -4.9060926703604046     
  0.94000000000000006       ,   -3.1558546057142864       ,   -4.9169601693219587     
  0.96000000000000008       ,   -3.1730385267542478       ,   -4.9194692048411017     
  0.97999999999999998       ,   -3.1821930923911852       ,   -4.9133773562680680     
   1.0000000000000000       ,   -3.1829320391370750       ,   -4.8987953176789745     
   1.0200000000000000       ,   -3.1752264620713966       ,   -4.8761876259486518     
   1.0400000000000000       ,   -3.1594020537227783       ,   -4.8463598827332834     
   1.0600000000000001       ,   -3.1361220135872823       ,   -4.8104328656611939     
   1.0800000000000001       ,   -3.1063564077615213       ,   -4.7698043973038562     
   1.1000000000000001       ,   -3.0713392688687806       ,   -4.7261002800690690     
   1.1200000000000001       ,   -3.0325151836567841       ,   -4.6811159954660546     
   1.1400000000000001       ,   -2.9914775026798259       ,   -4.6367511936688803     
   1.1600000000000001       ,   -2.9499006094827371       ,   -4.5949392528315478     
   1.1799999999999999       ,   -2.9094688951237551       ,   -4.5575743589003936     
   1.2000000000000000       ,   -2.8718051908149005       ,   -4.5264386405290509     
   1.2200000000000000       ,   -2.8384014139166789       ,   -4.5031318881640017     
   1.2400000000000000       ,   -2.8105540814510359       ,   -4.4890062927196697     
   1.2600000000000000       ,   -2.7893071455228817       ,   -4.4851084619297454     
   1.2800000000000000       ,   -2.7754043150501304       ,   -4.4921307188062158     
   1.3000000000000000       ,   -2.7692526597689673       ,   -4.5103733666154868     
   1.3200000000000001       ,   -2.7708988601927329       ,   -4.5397192305438514     
   1.3400000000000001       ,   -2.7800189878710495       ,   -4.5796213716199281     
   1.3600000000000001       ,   -2.7959221923053041       ,   -4.6291044284984855     
   1.3800000000000001       ,   -2.8175681534646384       ,   -4.6867795929913285     
   1.4000000000000001       ,   -2.8435976513784169       ,   -4.7508727813648441     
   1.4200000000000002       ,   -2.8723751255096546       ,   -4.8192651404659248     
   1.4399999999999999       ,   -2.9020416639915951       ,   -4.8895446396581468     
   1.4600000000000000       ,   -2.9305764918404575       ,   -4.9590671587537871     
   1.4800000000000000       ,   -2.9558647309477406       ,   -5.0250251990527692     
   1.5000000000000000       ,   -2.9757689930528279       ,   -5.0845221273969612     
   1.5200000000000000       ,   -2.9882022467578895       ,   -5.1346497174523513     
   1.5400000000000000       ,   -2.9911993742273171       ,   -5.1725666812362912     
   1.5600000000000001       ,   -2.9829849021983565       ,   -5.1955758875450870     
   1.5800000000000001       ,   -2.9620345514969304       ,   -5.2011980401522298     
   1.6000000000000001       ,   -2.9271284922689751       ,   -5.1872397327676305     
   1.6200000000000001       ,   -2.8773945084809927       ,   -5.1518540029442850     
   1.6400000000000001       ,   -2.8123396522260764       ,   -5.0935917647180586     
   1.6600000000000001       ,   -2.7318693912590986       ,   -5.0114427996562716     
   1.6800000000000002       ,   -2.6362937057840852       ,   -4.9048653170151750     
   1.7000000000000000       ,   -2.5263200558075609       ,   -4.7738034441321702     
   1.7200000000000000       ,   -2.4030336011571416       ,   -4.6186923661241881     
   1.7400000000000000       ,   -2.2678654958250331       ,   -4.4404511878413571     
   1.7600000000000000       ,   -2.1225504810004874       ,   -4.2404639299362064     
   1.7800000000000000       ,   -1.9690753530343852       ,   -4.0205493849998160     
   1.8000000000000000       ,   -1.8096201718109859       ,   -3.7829208404786581     
   1.8200000000000001       ,   -1.6464942923209451       ,   -3.5301369155792033     
   1.8400000000000001       ,   -1.4820694412151787       ,   -3.2650449543869278     
   1.8600000000000001       ,   -1.3187121173845708       ,   -2.9907185635727060     
   1.8800000000000001       ,   -1.1587175708622219       ,   -2.7103909787543090     
   1.9000000000000001       ,   -1.0042475103281987       ,   -2.4273859889943994     
   1.9200000000000002       ,  -0.85727351182485645       ,   -2.1450481458418058     
   1.9399999999999999       ,  -0.71952785816778597       ,   -1.8666739349844030     
   1.9600000000000000       ,  -0.59246324038999099       ,   -1.5954454994112781     
   1.9800000000000000       ,  -0.47722241158704715       ,   -1.3343683783470792     
   2.0000000000000000       ,  -0.37461851321290351       ,   -1.0862145721524077     
   2.0200000000000000       ,  -0.28512640841567310       ,  -0.85347206628300798     
   2.0400000000000000       ,  -0.20888497078121548       ,  -0.63830175376459775     
   2.0600000000000001       ,  -0.14570990387763516       ,  -0.44250249180496920     
   2.0800000000000001       ,   -9.5116320379692573E-002  ,  -0.26748482008012442     
   2.1000000000000001       ,   -5.6350001045643285E-002  ,  -0.11425366127029826     
   2.1200000000000001       ,   -2.8425993392198388E-002  ,    1.6599876752488495E-002
   2.1400000000000001       ,   -1.0173005435375814E-002  ,   0.12489766921357362     
   2.1600000000000001       ,   -2.8190686554742421E-004  ,   0.21086496420016687     
   2.1800000000000002       ,    2.6434284476701069E-003  ,   0.27511240892934874     
   2.2000000000000002       ,    3.4718140521593312E-005  ,   0.31861027533449249     
   2.2200000000000002       ,   -6.6909649618450626E-003  ,   0.34265557861303325     
   2.2400000000000002       ,   -1.6178639963791774E-002  ,   0.34883289609563978     
   2.2600000000000002       ,   -2.7178615824873475E-002  ,   0.33896979066938482     
   2.2800000000000002       ,   -3.8584185862274883E-002  ,   0.31508782354648884     
   2.3000000000000003       ,   -4.9462805503080798E-002  ,   0.27935020605646349     
   2.3200000000000003       ,   -5.9080005631606168E-002  ,   0.23400718995961189     
   2.3399999999999999       ,   -6.6915573430026881E-002  ,   0.18134033098246866     
   2.3599999999999999       ,   -7.2671815091086819E-002  ,   0.12360678105407159     
   2.3799999999999999       ,   -7.6273989604168202E-002  ,    6.2984770955220024E-002
   2.3999999999999999       ,   -7.7863260169630272E-002  ,    1.5214363189196604E-003
   2.4199999999999999       ,   -7.7782741004348982E-002  ,   -5.8915884641200060E-002
   2.4399999999999999       ,   -7.6557415123417183E-002  ,  -0.11668379469209553     
   2.4600000000000000       ,   -7.4868857545750636E-002  ,  -0.17040139488782671     
   2.4800000000000000       ,   -7.3525814524438904E-002  ,  -0.21898230681147554     
   2.5000000000000000       ,   -7.3431760991459025E-002  ,  -0.26165931011273991     
   2.5200000000000000       ,   -7.5550585463457706E-002  ,  -0.29800086616816657     
   2.5400000000000000       ,   -8.0871536013742140E-002  ,  -0.32791894086174017     
   2.5600000000000001       ,   -9.0374506048961120E-002  ,  -0.35166770314698637     
   2.5800000000000001       ,  -0.10499664942572558       ,  -0.36983286022445827     
   2.6000000000000001       ,  -0.12560119693264185       ,  -0.38331159297542111     
   2.6200000000000001       ,  -0.15294920720039967       ,  -0.39328327387721290     
   2.6400000000000001       ,  -0.18767483202684385       ,  -0.40117138011380432     
   2.6600000000000001       ,  -0.23026451639373779       ,  -0.40859725210197967     
   2.6800000000000002       ,  -0.28104039438372536       ,  -0.41732658635509334     
   2.7000000000000002       ,  -0.34014799053489592       ,  -0.42920978485837602     
   2.7200000000000002       ,  -0.40754819784852497       ,  -0.44611750365035630     
   2.7400000000000002       ,  -0.48301338360355883       ,  -0.46987294339986313     
   2.7600000000000002       ,  -0.56612737601987406       ,  -0.50218259660527731     
   2.7800000000000002       ,  -0.65628901100404036       ,  -0.54456730195543279     
   2.8000000000000003       ,  -0.75271886967085233       ,  -0.59829554920573569     
   2.8200000000000003       ,  -0.85446881365400773       ,  -0.66432102129058035     
   2.8399999999999999       ,  -0.96043392470324007       ,  -0.74322634911782881     
   2.8599999999999999       ,   -1.0693664748674663       ,  -0.83517498483395614     
   2.8799999999999999       ,   -1.1798915898821802       ,  -0.93987296929196984     
   2.8999999999999999       ,   -1.2905243166929263       ,   -1.0565421789194358     
   2.9199999999999999       ,   -1.3996878613756325       ,   -1.1839063881789924     
   2.9399999999999999       ,   -1.5057328209055518       ,   -1.3201911805106803     
   2.9600000000000000       ,   -1.6069572862356991       ,   -1.4631383893748009     
   2.9800000000000000       ,   -1.7016277403127102       ,   -1.6100353601704056     
   3.0000000000000000       ,   -1.7880007089597327       ,   -1.7577589036689381     
   3.0200000000000000       ,   -1.8643451418187214       ,   -1.9028333740759422     
   3.0400000000000000       ,   -1.9289655026200192       ,   -2.0415018630960411     
   3.0600000000000001       ,   -1.9802255319259658       ,   -2.1698090694744208     
   3.0800000000000001       ,   -2.0165726113714166       ,   -2.2836939958725582     
   3.1000000000000001       ,   -2.0365626076896075       ,   -2.3790902559540656     
   3.1200000000000001       ,   -2.0388850099985163       ,   -2.4520314579328604     
   3.1400000000000001       ,   -2.0223880984792517       ,   -2.4987588791412794     
   3.1600000000000001       ,   -1.9861038011003642       ,   -2.5158284703294940     
   3.1800000000000002       ,   -1.9292718124533648       ,   -2.5002141372084865     
   3.2000000000000002       ,   -1.8513624704694305       ,   -2.4494042464735166     
   3.2200000000000002       ,   -1.7520978182920526       ,   -2.3614883976250680     
   3.2400000000000002       ,   -1.6314702252149373       ,   -2.2352316906883005     
   3.2600000000000002       ,   -1.4897579072286593       ,   -2.0701340005682294     
   3.2800000000000002       ,   -1.3275366785013214       ,   -1.8664721351942624     
   3.3000000000000003       ,   -1.1456872832371841       ,   -1.6253231976232987     
   3.3200000000000003       ,  -0.94539770485054875       ,   -1.3485679798192485     
   3.3400000000000003       ,  -0.72815992699927701       ,   -1.0388737732914484     
   3.3599999999999999       ,  -0.49576072809651756       ,  -0.69965657243244750     
   3.3799999999999999       ,  -0.25026622540081966       ,  -0.33502325194271260     
   3.3999999999999999       ,    5.9999567601652483E-003  ,    5.0305099110372495E-002
   3.4199999999999999       ,   0.27048484235825049       ,   0.45108692688341995     
   3.4399999999999999       ,   0.54044033918937640       ,   0.86166875234611917     
   3.4600000000000000       ,   0.81296311323444181       ,    1.2761057347168292     
   3.4800000000000000       ,    1.0850394632892288       ,    1.6882910980247356     
   3.5000000000000000       ,    1.3535943683887275       ,    2.0920909576226818     
   3.5200000000000000       ,    1.6155437077128516       ,    2.4814808844487262     
   3.5400000000000000       ,    1.8678485033211674       ,    2.8506804572479791     
   3.5600000000000001       ,    2.1075699170335040       ,    3.1942820811781787     
   3.5800000000000001       ,    2.3319236499360270       ,    3.5073704957349179     
   3.6000000000000001       ,    2.5383323510397822       ,    3.7856296523077186     
   3.6200000000000001       ,    2.7244746438191170       ,    4.0254340046099948     
   3.6400000000000001       ,    2.8883294273835993       ,    4.2239217127435369     
   3.6600000000000001       ,    3.0282142028581109       ,    4.3790477994629562     
   3.6800000000000002       ,    3.1428163133763656       ,    4.4896158981441019     
   3.7000000000000002       ,    3.2312161644321447       ,    4.5552878765916782     
   3.7200000000000002       ,    3.2929017050477856       ,    4.5765712880823735     
   3.7400000000000002       ,    3.3277736927251134       ,    4.5547852689737613     
   3.7600000000000002       ,    3.3361415286176315       ,    4.4920061487297787     
   3.7800000000000002       ,    3.3187097250305682       ,    4.3909946418879224     
   3.8000000000000003       ,    3.2765553458135219       ,    4.2551070322931910     
   3.8200000000000003       ,    3.2110970317738250       ,    4.0881932199526450     
   3.8400000000000003       ,    3.1240564783137983       ,    3.8944848649838324     
   3.8599999999999999       ,    3.0174134619443396       ,    3.6784771195183885     
   3.8799999999999999       ,    2.8933557078274199       ,    3.4448075789912558     
   3.8999999999999999       ,    2.7542250448693757       ,    3.1981361049378303     
   3.9199999999999999       ,    2.6024614023697681       ,    2.9430290723568771     
   3.9399999999999999       ,    2.4405462587344009       ,    2.6838513801673054     
   3.9600000000000000       ,    2.2709471560223431       ,    2.4246692415985347     
   3.9800000000000000       ,    2.0960648437865426       ,    2.1691663545268374     
   4.0000000000000000       ,    1.9181845134141251       ,    1.9205755550939581     
   4.0199999999999996       ,    1.7394324335140723       ,    1.6816274994249345     
   4.0400000000000000       ,    1.5617391031605072       ,    1.4545173179576736     
   4.0599999999999996       ,    1.3868098098957156       ,    1.2408895661923001     
   4.0800000000000001       ,    1.2161032215800047       ,    1.0418411764856537     
   4.0999999999999996       ,    1.0508183647273994       ,   0.85794151952846920     
   4.1199999999999992       ,   0.89189005684518718       ,   0.68926813197569636     
   4.1399999999999997       ,   0.73999257676564045       ,   0.53545617719778760     
   4.1599999999999993       ,   0.59555108519619271       ,   0.39575929566167556     
   4.1799999999999997       ,   0.45876005742798154       ,   0.26911918337036911     
   4.1999999999999993       ,   0.32960777020146798       ,   0.15424102091756409     
   4.2199999999999998       ,   0.20790570282843546       ,    4.9671768031644151E-002
   4.2399999999999993       ,    9.3321575048939370E-002  ,   -4.6121659049522069E-002
   4.2599999999999998       ,   -1.4585344699752310E-002  ,  -0.13467719952522686     
   4.2799999999999994       ,  -0.11632806422424416       ,  -0.21746810895963617     
   4.2999999999999998       ,  -0.21245621441844059       ,  -0.29584142410976816     
   4.3199999999999994       ,  -0.30352224078642581       ,  -0.37096640260222757     
   4.3399999999999999       ,  -0.39005064868095163       ,  -0.44379446098566366     
   4.3599999999999994       ,  -0.47251135466595673       ,  -0.51503164172866511     
   4.3799999999999999       ,  -0.55129800341921109       ,  -0.58512412059770769     
   4.3999999999999995       ,  -0.62671188807461009       ,  -0.65425674058640426     
   4.4199999999999999       ,  -0.69895187071303444       ,  -0.72236404715500924     
   4.4399999999999995       ,  -0.76811044835611197       ,  -0.78915282112730278     
   4.4600000000000000       ,  -0.83417585809753625       ,  -0.85413467778458918     
   4.4799999999999995       ,  -0.89703987262702134       ,  -0.91666693889813311     
   4.5000000000000000       ,  -0.95651071360171680       ,  -0.97599970129769476     
   4.5199999999999996       ,   -1.0123303135145862       ,   -1.0313268305201984     
   4.5400000000000000       ,   -1.0641949941758280       ,   -1.0818385070233734     
   4.5599999999999996       ,   -1.1117785075233408       ,   -1.1267729475742296     
   4.5800000000000001       ,   -1.1547563064468025       ,   -1.1654650141713390     
