r(A) ,   X_ray-calc  ,   X_ray_exp_renorm
   2.0000000000000000E-002  ,   -5.1825009537340412       ,   -7.8287047332830646     
   4.0000000000000001E-002  ,   -5.1462922946413494       ,   -7.7290011845663207     
   5.9999999999999998E-002  ,   -5.0866795284295110       ,   -7.5655708931172461     
   8.0000000000000002E-002  ,   -5.0047504983203588       ,   -7.3424422824722679     
  0.10000000000000001       ,   -4.9019990992137865       ,   -7.0650879438800542     
  0.12000000000000001       ,   -4.7802967173364124       ,   -6.7402639178590693     
  0.13999999999999999       ,   -4.6418562618701538       ,   -6.3758120699718219     
  0.16000000000000000       ,   -4.4891893547642869       ,   -5.9804318965871568     
  0.17999999999999999       ,   -4.3250573715043101       ,   -5.5634290512411981     
  0.19999999999999998       ,   -4.1524171504702458       ,   -5.1344485904618260     
  0.22000000000000000       ,   -3.9743623095983516       ,   -4.7032013764816440     
  0.23999999999999999       ,   -3.7940612236447286       ,   -4.2791922294764664     
  0.26000000000000001       ,   -3.6146928201218342       ,   -3.8714582900818297     
  0.28000000000000003       ,   -3.4393814431314502       ,   -3.4883256402072167     
  0.30000000000000004       ,   -3.2711321077002151       ,   -3.1371915525708340     
  0.32000000000000001       ,   -3.1127675185375687       ,   -2.8243388220214616     
  0.34000000000000002       ,   -2.9668682521465368       ,   -2.5547875078899862     
  0.36000000000000004       ,   -2.8357174960042117       ,   -2.3321881265717104     
  0.38000000000000000       ,   -2.7212516997300753       ,   -2.1587589230236244     
  0.40000000000000002       ,   -2.6250184182151699       ,   -2.0352683684416766     
  0.42000000000000004       ,   -2.5481425140687191       ,   -1.9610625306836642     
  0.44000000000000000       ,   -2.4913017361460770       ,   -1.9341354958405883     
  0.46000000000000002       ,   -2.4547125034282633       ,   -1.9512396339057587     
  0.48000000000000004       ,   -2.4381265016768214       ,   -2.0080312455031395     
  0.50000000000000000       ,   -2.4408384481508798       ,   -2.0992460418164334     
  0.52000000000000002       ,   -2.4617051027841907       ,   -2.2188980314183522     
  0.54000000000000004       ,   -2.4991753095006763       ,   -2.3604947431616625     
  0.56000000000000005       ,   -2.5513305469240892       ,   -2.5172613225881091     
  0.58000000000000007       ,   -2.6159351627133915       ,   -2.6823659101925172     
  0.59999999999999998       ,   -2.6904951699107791       ,   -2.8491388436668177     
  0.62000000000000000       ,   -2.7723242071415908       ,   -3.0112786139341008     
  0.64000000000000001       ,   -2.8586150173353579       ,   -3.1630381284529876     
  0.66000000000000003       ,   -2.9465145914867952       ,   -3.2993856688715488     
  0.68000000000000005       ,   -3.0332009636516686       ,   -3.4161359404756948     
  0.70000000000000007       ,   -3.1159595384565213       ,   -3.5100477590338706     
  0.72000000000000008       ,   -3.1922567888929518       ,   -3.5788861632881139     
  0.73999999999999999       ,   -3.2598091841756327       ,   -3.6214480324859228     
  0.76000000000000001       ,   -3.3166452969362581       ,   -3.6375515810091930     
  0.78000000000000003       ,   -3.3611591956621427       ,   -3.6279913501003498     
  0.80000000000000004       ,   -3.3921534493221697       ,   -3.5944614760951685     
  0.82000000000000006       ,   -3.4088703514192229       ,   -3.5394510456231560     
  0.84000000000000008       ,   -3.4110103028293386       ,   -3.4661162164939765     
  0.85999999999999999       ,   -3.3987366671977508       ,   -3.3781344605943926     
  0.88000000000000000       ,   -3.3726668180029096       ,   -3.2795467517178905     
  0.90000000000000002       ,   -3.3338495198559350       ,   -3.1745937646139901     
  0.92000000000000004       ,   -3.2837292143388144       ,   -3.0675521679144180     
  0.94000000000000006       ,   -3.2240981983178449       ,   -2.9625768876645799     
  0.96000000000000008       ,   -3.1570380758025101       ,   -2.8635548028072679     
  0.97999999999999998       ,   -3.0848522191686993       ,   -2.7739747295109649     
   1.0000000000000000       ,   -3.0099912790850136       ,   -2.6968177847323189     
   1.0200000000000000       ,   -2.9349740234750907       ,   -2.6344713233962356     
   1.0400000000000000       ,   -2.8623059550132961       ,   -2.5886686548123290     
   1.0600000000000001       ,   -2.7943982470685191       ,   -2.5604557019112528     
   1.0800000000000001       ,   -2.7334895454479642       ,   -2.5501847122665930     
   1.1000000000000001       ,   -2.6815731064081429       ,   -2.5575341029913008     
   1.1200000000000001       ,   -2.6403315818440096       ,   -2.5815525608916059     
   1.1400000000000001       ,   -2.6110815249630512       ,   -2.6207246598285909     
   1.1600000000000001       ,   -2.5947293815721246       ,   -2.6730545295639847     
   1.1799999999999999       ,   -2.5917403634310419       ,   -2.7361635392337011     
   1.2000000000000000       ,   -2.6021211833044009       ,   -2.8073975622163743     
   1.2200000000000000       ,   -2.6254171805508508       ,   -2.8839391786091912     
   1.2400000000000000       ,   -2.6607238968302873       ,   -2.9629201503905267     
   1.2600000000000000       ,   -2.7067126900470928       ,   -3.0415296687647491     
   1.2800000000000000       ,   -2.7616695174071952       ,   -3.1171142120791218     
   1.3000000000000000       ,   -2.8235455914248373       ,   -3.1872653483547255     
   1.3200000000000001       ,   -2.8900182308017599       ,   -3.2498924453256954     
   1.3400000000000001       ,   -2.9585599046430802       ,   -3.3032779845504865     
   1.3600000000000001       ,   -3.0265132146830402       ,   -3.3461139826382480     
   1.3800000000000001       ,   -3.0911693847533401       ,   -3.3775188676165580     
   1.4000000000000001       ,   -3.1498477354540473       ,   -3.3970350067362700     
   1.4200000000000002       ,   -3.1999736176215250       ,   -3.4046078988590267     
   1.4399999999999999       ,   -3.2391523602824686       ,   -3.4005487971794910     
   1.4600000000000000       ,   -3.2652369537327410       ,   -3.3854831867421038     
   1.4800000000000000       ,   -3.2763874295593580       ,   -3.3602880806780515     
   1.5000000000000000       ,   -3.2711202074507688       ,   -3.3260214992402966     
   1.5200000000000000       ,   -3.2483460417421939       ,   -3.2838477424896442     
   1.5400000000000000       ,   -3.2073956051116643       ,   -3.2349621533197719     
   1.5600000000000001       ,   -3.1480321775737381       ,   -3.1805189915654966     
   1.5800000000000001       ,   -3.0704513499900616       ,   -3.1215658080565971     
   1.6000000000000001       ,   -2.9752680866098520       ,   -3.0589873318661911     
   1.6200000000000001       ,   -2.8634919049670065       ,   -2.9934613826634897     
   1.6400000000000001       ,   -2.7364913091143253       ,   -2.9254287160293071     
   1.6600000000000001       ,   -2.5959489405629896       ,   -2.8550780298566765     
   1.6800000000000002       ,   -2.4438091793770247       ,   -2.7823466344476930     
   1.7000000000000000       ,   -2.2822201270779017       ,   -2.7069365491588018     
   1.7200000000000000       ,   -2.1134720275479988       ,   -2.6283450662989112     
   1.7400000000000000       ,   -1.9399342291495936       ,   -2.5459081493077962     
   1.7600000000000000       ,   -1.7639927610013368       ,   -2.4588544356577984     
   1.7800000000000000       ,   -1.5879904919606493       ,   -2.3663671206321957     
   1.8000000000000000       ,   -1.4141716683441135       ,   -2.2676506269206684     
   1.8200000000000001       ,   -1.2446323943033446       ,   -2.1619987323525258     
   1.8400000000000001       ,   -1.0812783377328072       ,   -2.0488607437087660     
   1.8600000000000001       ,  -0.92579062697204972       ,   -1.9279023718093078     
   1.8800000000000001       ,  -0.77960056288727553       ,   -1.7990581789919429     
   1.9000000000000001       ,  -0.64387342126973657       ,   -1.6625728254853873     
   1.9200000000000002       ,  -0.51950127596819251       ,   -1.5190288209973073     
   1.9399999999999999       ,  -0.40710444729676892       ,   -1.3693590718471151     
   1.9600000000000000       ,  -0.30704088542546187       ,   -1.2148431775619548     
   1.9800000000000000       ,  -0.21942254544671003       ,   -1.0570871460545952     
   2.0000000000000000       ,  -0.14413760836688719       ,  -0.89798693313816058     
   2.0200000000000000       ,   -8.0877256782564022E-002  ,  -0.73967693905665011     
   2.0400000000000000       ,   -2.9165629274306489E-002  ,  -0.58446528107786710     
   2.0600000000000001       ,    1.1608445301310078E-002  ,  -0.43475827772876746     
   2.0800000000000001       ,    4.2159294989110814E-002  ,  -0.29297710043958758     
   2.1000000000000001       ,    6.3273101129988060E-002  ,  -0.16146994954615038     
   2.1200000000000001       ,    7.5778568400597032E-002  ,   -4.2423375910317696E-002
   2.1400000000000001       ,    8.0520508379136255E-002  ,    6.2223515479413918E-002
   2.1600000000000001       ,    7.8337060810894102E-002  ,   0.15085828395607323     
   2.1800000000000002       ,    7.0041041063464066E-002  ,   0.22226429353688185     
   2.2000000000000002       ,    5.6405658382852983E-002  ,   0.27567661994625964     
   2.2200000000000002       ,    3.8154609329601005E-002  ,   0.31082205043876115     
   2.2400000000000002       ,    1.5956325551099337E-002  ,   0.32794110229030149     
   2.2600000000000002       ,   -9.5780447900440865E-003  ,   0.32779068076233109     
   2.2800000000000002       ,   -3.7893508131858170E-002  ,   0.31162676031732744     
   2.3000000000000003       ,   -6.8487659483857766E-002  ,   0.28116727372620182     
   2.3200000000000003       ,  -0.10090546731395922       ,   0.23853620052332616     
   2.3399999999999999       ,  -0.13473322619860470       ,   0.18619062657309426     
   2.3599999999999999       ,  -0.16959247374549966       ,   0.12683326862077079     
   2.3799999999999999       ,  -0.20513460110644738       ,    6.3313591949849660E-002
   2.3999999999999999       ,  -0.24103677692513481       ,   -1.4788307814849462E-003
   2.4199999999999999       ,  -0.27699965945585370       ,   -6.4724687950169724E-002
   2.4399999999999999       ,  -0.31274719923556693       ,  -0.12378476295413623     
   2.4600000000000000       ,  -0.34802864482373391       ,  -0.17630490647852703     
   2.4800000000000000       ,  -0.38262266734472455       ,  -0.22031192328573060     
   2.5000000000000000       ,  -0.41634332684178471       ,  -0.25429642057657803     
   2.5200000000000000       ,  -0.44904742558146299       ,  -0.27727909457368344     
   2.5400000000000000       ,  -0.48064264055038936       ,  -0.28885750563911305     
   2.5600000000000001       ,  -0.51109570840384766       ,  -0.28923108947077975     
   2.5800000000000001       ,  -0.54043985838322794       ,  -0.27920294725312705     
   2.6000000000000001       ,  -0.56878065755914853       ,  -0.26015782156630285     
   2.6200000000000001       ,  -0.59629945125779360       ,  -0.23401656496954590     
   2.6400000000000001       ,  -0.62325365032945512       ,  -0.20316831037479482     
   2.6600000000000001       ,  -0.64997323415358277       ,  -0.17038242214509255     
   2.6800000000000002       ,  -0.67685299962050249       ,  -0.13870311076724945     
   2.7000000000000002       ,  -0.70434028516750491       ,  -0.11133030067491240     
   2.7200000000000002       ,  -0.73291812663209421       ,   -9.1490922504485886E-002
   2.7400000000000002       ,  -0.76308404791463991       ,   -8.2305234450396572E-002
   2.7600000000000002       ,  -0.79532494270057741       ,   -8.6653044593005504E-002
   2.7800000000000002       ,  -0.83008875155984441       ,  -0.10704479539877844     
   2.8000000000000003       ,  -0.86775386924615927       ,  -0.14550237796237611     
   2.8200000000000003       ,  -0.90859741799965987       ,  -0.20345426874858333     
   2.8399999999999999       ,  -0.95276368312128112       ,  -0.28164913418614007     
   2.8599999999999999       ,   -1.0002341175353024       ,  -0.38009144357100749     
   2.8799999999999999       ,   -1.0508003749457706       ,  -0.49800188943074591     
   2.8999999999999999       ,   -1.1040418213273622       ,  -0.63380456306449173     
   2.9199999999999999       ,   -1.1593088993153233       ,  -0.78514190191418842     
   2.9399999999999999       ,   -1.2157135798349830       ,  -0.94891744835258052     
   2.9600000000000000       ,   -1.2721279331842485       ,   -1.1213654718515940     
   2.9800000000000000       ,   -1.3271915937145151       ,   -1.2981455443086469     
   3.0000000000000000       ,   -1.3793285868415344       ,   -1.4744592567329429     
   3.0200000000000000       ,   -1.4267736452789856       ,   -1.6451854575773739     
   3.0400000000000000       ,   -1.4676077759629129       ,   -1.8050297084346993     
   3.0600000000000001       ,   -1.4998024643798338       ,   -1.9486831168257182     
   3.0800000000000001       ,   -1.5212715340271603       ,   -2.0709853382149785     
   3.1000000000000001       ,   -1.5299293308518596       ,   -2.1670863538815528     
   3.1200000000000001       ,   -1.5237535906535438       ,   -2.2326016348904725     
   3.1400000000000001       ,   -1.5008510854793014       ,   -2.2637554952974037     
   3.1600000000000001       ,   -1.4595239452148083       ,   -2.2575078131216988     
   3.1800000000000002       ,   -1.3983344229375305       ,   -2.2116598421516263     
   3.2000000000000002       ,   -1.3161658245435541       ,   -2.1249355317795682     
   3.2200000000000002       ,   -1.2122773590829707       ,   -1.9970355908907254     
   3.2400000000000002       ,   -1.0863507872842535       ,   -1.8286624459667153     
   3.2600000000000002       ,  -0.93852694970143669       ,   -1.6215152202720096     
   3.2800000000000002       ,  -0.76943053723050370       ,   -1.3782548653714077     
   3.3000000000000003       ,  -0.58018181669223468       ,   -1.1024405725283464     
   3.3200000000000003       ,  -0.37239443116988119       ,  -0.79843954446568410     
   3.3400000000000003       ,  -0.14815884475977306       ,  -0.47131308399544081     
   3.3599999999999999       ,    8.9988521660929216E-002  ,  -0.12668272458236557     
   3.3799999999999999       ,   0.33910993046093924       ,   0.22941923747882023     
   3.3999999999999999       ,   0.59592373166963986       ,   0.59070997037017647     
   3.4199999999999999       ,   0.85687306849208844       ,   0.95082194647659801     
   3.4399999999999999       ,    1.1182040123144494       ,    1.3034691197155654     
   3.4600000000000000       ,    1.3760509066213789       ,    1.6426082210606285     
   3.4800000000000000       ,    1.6265264233535985       ,    1.9625901874979477     
   3.5000000000000000       ,    1.8658136435125761       ,    2.2582971431849330     
   3.5200000000000000       ,    2.0902573742750774       ,    2.5252609076133621     
   3.5400000000000000       ,    2.2964519120918356       ,    2.7597596923897174     
   3.5600000000000001       ,    2.4813225561529753       ,    2.9588904396103577     
   3.5800000000000001       ,    2.6421983664510997       ,    3.1206151210250028     
   3.6000000000000001       ,    2.7768739390873973       ,    3.2437802261998483     
   3.6200000000000001       ,    2.8836583286849176       ,    3.3281095865282380     
   3.6400000000000001       ,    2.9614096710080355       ,    3.3741715771161971     
   3.6600000000000001       ,    3.0095545328077735       ,    3.3833225785489058     
   3.6800000000000002       ,    3.0280915232350929       ,    3.3576293360708975     
   3.7000000000000002       ,    3.0175792233154430       ,    3.2997734990847669     
   3.7200000000000002       ,    2.9791090078153699       ,    3.2129421378444922     
   3.7400000000000002       ,    2.9142638283882762       ,    3.1007084007313011     
   3.7600000000000002       ,    2.8250644801043392       ,    2.9669066842081655     
   3.7800000000000002       ,    2.7139052689054686       ,    2.8155067341297957     
   3.8000000000000003       ,    2.5834813209870711       ,    2.6504909833032007     
   3.8200000000000003       ,    2.4367100152016641       ,    2.4757391637540018     
   3.8400000000000003       ,    2.2766491681482659       ,    2.2949238263081462     
   3.8599999999999999       ,    2.1064146540431916       ,    2.1114198730722138     
   3.8799999999999999       ,    1.9291000968619014       ,    1.9282305826085910     
   3.8999999999999999       ,    1.7477011334232131       ,    1.7479319087618317     
   3.9199999999999999       ,    1.5650465194817760       ,    1.5726360901575109     
   3.9399999999999999       ,    1.3837380462521900       ,    1.4039748474808413     
   3.9600000000000000       ,    1.2061008647751963       ,    1.2431016988848904     
   3.9800000000000000       ,    1.0341453952209869       ,    1.0907122183274054     
   4.0000000000000000       ,   0.86954154445739884       ,   0.94708042319382224     
   4.0199999999999996       ,   0.71360548594579098       ,   0.81210892903117171     
   4.0400000000000000       ,   0.56729878959605806       ,   0.68539006946638859     
   4.0599999999999996       ,   0.43123924359417709       ,   0.56627486269666683     
   4.0800000000000001       ,   0.30572230231728553       ,   0.45394652154231296     
   4.0999999999999996       ,   0.19075173944612078       ,   0.34749515583715701     
   4.1199999999999992       ,    8.6077796115045652E-002  ,   0.24599040240042139     
   4.1399999999999997       ,   -8.7590995705603743E-003  ,   0.14854893225354232     
   4.1599999999999993       ,   -9.4381096244851040E-002  ,    5.4394115497341175E-002
   4.1799999999999997       ,  -0.17152426576379481       ,   -3.7094444612846111E-002
   4.1999999999999993       ,  -0.24099059111923585       ,  -0.12634328496866998     
   4.2199999999999998       ,  -0.30360253136165916       ,  -0.21356056962296835     
   4.2399999999999993       ,  -0.36016190075485283       ,  -0.29872529255451508     
   4.2599999999999998       ,  -0.41141453566571273       ,  -0.38159018504119818     
   4.2799999999999994       ,  -0.45802190603755910       ,  -0.46169771948767524     
   4.2999999999999998       ,  -0.50054047312225269       ,  -0.53840804464231684     
   4.3199999999999994       ,  -0.53940921723207491       ,  -0.61093719220500686     
   4.3399999999999999       ,  -0.57494537508145771       ,  -0.67840348085991364     
   4.3599999999999994       ,  -0.60734805227682265       ,  -0.73987972614660735     
   4.3799999999999999       ,  -0.63670902843623189       ,  -0.79444865452860258     
   4.3999999999999995       ,  -0.66302976468211305       ,  -0.84125882419965248     
   4.4199999999999999       ,  -0.68624336830737542       ,  -0.87957837550790563     
   4.4399999999999995       ,  -0.70624007727433968       ,  -0.90884406754414204     
   4.4600000000000000       ,  -0.72289470502725950       ,  -0.92870329703137211     
   4.4799999999999995       ,  -0.73609443792179718       ,  -0.93904712956142589     
   4.5000000000000000       ,  -0.74576540417985360       ,  -0.94003278616498487     
   4.5199999999999996       ,  -0.75189653218909780       ,  -0.93209450188191789     
   4.5400000000000000       ,  -0.75455938159053326       ,  -0.91594218689941720     
   4.5599999999999996       ,  -0.75392285449674701       ,  -0.89254785306218343     
   4.5800000000000001       ,  -0.75026196546850121       ,  -0.86312029678896374     
