r(A) ,   X_ray-calc  ,   X_ray_exp_renorm
   2.0000000000000000E-002  ,   -2.2510992431174968       ,   -4.0701511209469619     
   4.0000000000000001E-002  ,   -2.2698002717285410       ,   -4.0886836574948111     
   5.9999999999999998E-002  ,   -2.3003632152569038       ,   -4.1189056979917922     
   8.0000000000000002E-002  ,   -2.3419012706881110       ,   -4.1598439929852766     
  0.10000000000000001       ,   -2.3932148393102231       ,   -4.2101851006753686     
  0.12000000000000001       ,   -2.4528316591352923       ,   -4.2683223028788033     
  0.13999999999999999       ,   -2.5190559158808585       ,   -4.3324128877102757     
  0.16000000000000000       ,   -2.5900245926386223       ,   -4.4004436792151447     
  0.17999999999999999       ,   -2.6637690659077680       ,   -4.4703023918547231     
  0.19999999999999998       ,   -2.7382797758283872       ,   -4.5398521764706761     
  0.22000000000000000       ,   -2.8115716976511407       ,   -4.6070066119766988     
  0.23999999999999999       ,   -2.8817483232157217       ,   -4.6698023876327710     
  0.26000000000000001       ,   -2.9470619259315320       ,   -4.7264670145228989     
  0.28000000000000003       ,   -3.0059680278376484       ,   -4.7754790980609156     
  0.30000000000000004       ,   -3.0571722071846952       ,   -4.8156189885021305     
  0.32000000000000001       ,   -3.0996676713027376       ,   -4.8460079925921526     
  0.34000000000000002       ,   -3.1327623615424267       ,   -4.8661347626508338     
  0.36000000000000004       ,   -3.1560947420226220       ,   -4.8758679630719231     
  0.38000000000000000       ,   -3.1696378374730423       ,   -4.8754548300632203     
  0.40000000000000002       ,   -3.1736915123056701       ,   -4.8655057689284025     
  0.42000000000000004       ,   -3.1688634074373780       ,   -4.8469656543610089     
  0.44000000000000000       ,   -3.1560393577336892       ,   -4.8210729934748588     
  0.46000000000000002       ,   -3.1363444864009269       ,   -4.7893085601195331     
  0.48000000000000004       ,   -3.1110964996653916       ,   -4.7533354956792957     
  0.50000000000000000       ,   -3.0817529738724749       ,   -4.7149331817123086     
  0.52000000000000002       ,   -3.0498546281653116       ,   -4.6759274120663079     
  0.54000000000000004       ,   -3.0169667021759610       ,   -4.6381195184971045     
  0.56000000000000005       ,   -2.9846206055036801       ,   -4.6032171299529780     
  0.58000000000000007       ,   -2.9542579729428167       ,   -4.5727691710140901     
  0.59999999999999998       ,   -2.9271791482160081       ,   -4.5481075327353997     
  0.62000000000000000       ,   -2.9044979340230181       ,   -4.5302975862441226     
  0.64000000000000001       ,   -2.8871041949022018       ,   -4.5200993661792639     
  0.66000000000000003       ,   -2.8756355915056848       ,   -4.5179408406913018     
  0.68000000000000005       ,   -2.8704593722380554       ,   -4.5239042229721571     
  0.70000000000000007       ,   -2.8716647642125182       ,   -4.5377257837139453     
  0.72000000000000008       ,   -2.8790661046247963       ,   -4.5588091132473814     
  0.73999999999999999       ,   -2.8922164509482715       ,   -4.5862512755742371     
  0.76000000000000001       ,   -2.9104310187899585       ,   -4.6188808130088281     
  0.78000000000000003       ,   -2.9328194342001699       ,   -4.6553061176250328     
  0.80000000000000004       ,   -2.9583254659534064       ,   -4.6939723004570713     
  0.82000000000000006       ,   -2.9857726344566249       ,   -4.7332243754684988     
  0.84000000000000008       ,   -3.0139138870975049       ,   -4.7713743439625969     
  0.85999999999999999       ,   -3.0414833922467404       ,   -4.8067696244782825     
  0.88000000000000000       ,   -3.0672484403683140       ,   -4.8378602279746685     
  0.90000000000000002       ,   -3.0900594525833913       ,   -4.8632621293473433     
  0.92000000000000004       ,   -3.1088961835617530       ,   -4.8818144315359833     
  0.94000000000000006       ,   -3.1229083629979160       ,   -4.8926281517059529     
  0.96000000000000008       ,   -3.1314492417815809       ,   -4.8951247710381942     
  0.97999999999999998       ,   -3.1341007865632156       ,   -4.8890630685232299     
   1.0000000000000000       ,   -3.1306895890190538       ,   -4.8745531904576325     
   1.0200000000000000       ,   -3.1212929114208610       ,   -4.8520573749139162     
   1.0400000000000000       ,   -3.1062346646962182       ,   -4.8223772369563438     
   1.0600000000000001       ,   -3.0860714949977068       ,   -4.7866280079448007     
   1.0800000000000001       ,   -3.0615695257878626       ,   -4.7462005932006175     
   1.1000000000000001       ,   -3.0336726509401024       ,   -4.7027127497028207     
   1.1200000000000001       ,   -3.0034635876557467       ,   -4.6579510738596319     
   1.1400000000000001       ,   -2.9721191648181717       ,   -4.6138058152561552     
   1.1600000000000001       ,   -2.9408615332787540       ,   -4.5722007845515025     
   1.1799999999999999       ,   -2.9109071321750735       ,   -4.5350207941432652     
   1.2000000000000000       ,   -2.8834153247987730       ,   -4.5040391536618811     
   1.2200000000000000       ,   -2.8594386263889611       ,   -4.4808477368475765     
   1.2400000000000000       ,   -2.8398763847734494       ,   -4.4667920431769730     
   1.2600000000000000       ,   -2.8254336458336207       ,   -4.4629135011516876     
   1.2800000000000000       ,   -2.8165867445920028       ,   -4.4699010077612993     
   1.3000000000000000       ,   -2.8135569167969470       ,   -4.4880533801946108     
   1.3200000000000001       ,   -2.8162929346044314       ,   -4.5172540234879754     
   1.3400000000000001       ,   -2.8244634442817227       ,   -4.5569587052464762     
   1.3600000000000001       ,   -2.8374593358573117       ,   -4.6061968907878255     
   1.3800000000000001       ,   -2.8544061170603565       ,   -4.6635866445654868     
   1.4000000000000001       ,   -2.8741859096719464       ,   -4.7273626620580380     
   1.4200000000000002       ,   -2.8954683482083547       ,   -4.7954165754469020     
   1.4399999999999999       ,   -2.9167493505907056       ,   -4.8653482902452092     
   1.4600000000000000       ,   -2.9363964588830340       ,   -4.9345267709307166     
   1.4800000000000000       ,   -2.9526992245164125       ,   -5.0001584119620199     
   1.5000000000000000       ,   -2.9639229440294907       ,   -5.0593609144295080     
   1.5200000000000000       ,   -2.9683639435225611       ,   -5.1092404436175585     
   1.5400000000000000       ,   -2.9644045657775950       ,   -5.1469697719114871     
   1.5600000000000001       ,   -2.9505660340548481       ,   -5.1698651151028372     
   1.5800000000000001       ,   -2.9255574493502547       ,   -5.1754594459844485     
   1.6000000000000001       ,   -2.8883193195945989       ,   -5.1615702125336371     
   1.6200000000000001       ,   -2.8380602140742641       ,   -5.1263595921624256     
   1.6400000000000001       ,   -2.7742853766582130       ,   -5.0683856698383121     
   1.6600000000000001       ,   -2.6968164081570305       ,   -4.9866432262849747     
   1.6800000000000002       ,   -2.6058014311361779       ,   -4.8805931518586672     
   1.7000000000000000       ,   -2.5017154688508234       ,   -4.7501798503876644     
   1.7200000000000000       ,   -2.3853510924383881       ,   -4.5958363534363844     
   1.7400000000000000       ,   -2.2577997059650046       ,   -4.4184772175823150     
   1.7600000000000000       ,   -2.1204241367276957       ,   -4.2194796145278772     
   1.7800000000000000       ,   -1.9748234685764459       ,   -4.0006533364061729     
   1.8000000000000000       ,   -1.8227912903370063       ,   -3.7642007180125905     
   1.8200000000000001       ,   -1.6662687225423480       ,   -3.5126677169973832     
   1.8400000000000001       ,   -1.5072937281568195       ,   -3.2488875871088947     
   1.8600000000000001       ,   -1.3479483031628645       ,   -2.9759187250002079     
   1.8800000000000001       ,   -1.1903051790453651       ,   -2.6969783663331657     
   1.9000000000000001       ,   -1.0363756515316995       ,   -2.4153738521026735     
   1.9200000000000002       ,  -0.88806008045495655       ,   -2.1344331830447811     
   1.9399999999999999       ,  -0.74710248804993507       ,   -1.8574365318928008     
   1.9600000000000000       ,  -0.61505052264665727       ,   -1.5875502945163387     
   1.9800000000000000       ,  -0.49322185816726971       ,   -1.3277651369601027     
   2.0000000000000000       ,  -0.38267787465380748       ,   -1.0808393420927305     
   2.0200000000000000       ,  -0.28420521956375322       ,  -0.84924858335118847     
   2.0400000000000000       ,  -0.19830559247208968       ,  -0.63514306038859070     
   2.0600000000000001       ,  -0.12519383589262817       ,  -0.44031272860678372     
   2.0800000000000001       ,   -6.4804160718760856E-002  ,  -0.26616114749989661     
   2.1000000000000001       ,   -1.6804094299576626E-002  ,  -0.11368826679830980     
   2.1200000000000001       ,    1.9384480362254479E-002  ,    1.6517730776182817E-002
   2.1400000000000001       ,    4.4558018160095664E-002  ,   0.12427960191531405     
   2.1600000000000001       ,    5.9698722192002694E-002  ,   0.20982148004596748     
   2.1800000000000002       ,    6.5937779033018853E-002  ,   0.27375099054279839     
   2.2000000000000002       ,    6.4515613053096416E-002  ,   0.31703360386164864     
   2.2200000000000002       ,    5.6740400444413364E-002  ,   0.34095991680412646     
   2.2400000000000002       ,    4.3946091275012734E-002  ,   0.34710666527811174     
   2.2600000000000002       ,    2.7451158239827106E-002  ,   0.33729236831210779     
   2.2800000000000002       ,    8.5192265996956156E-003  ,   0.31352858324168498     
   2.3000000000000003       ,   -1.1677355180058416E-002  ,   0.27796781655141728     
   2.3200000000000003       ,   -3.2090065840325442E-002  ,   0.23284918442930586     
   2.3399999999999999       ,   -5.1822086986126961E-002  ,   0.18044295211910352     
   2.3599999999999999       ,   -7.0150866379219579E-002  ,   0.12299510183144323     
   2.3799999999999999       ,   -8.6544899591357555E-002  ,    6.2673085177087334E-002
   2.3999999999999999       ,  -0.10067443370696295       ,    1.5139073550804658E-003
   2.4199999999999999       ,  -0.11241596908062902       ,   -5.8624334111281907E-002
   2.4399999999999999       ,  -0.12185060197675460       ,  -0.11610637448729814     
   2.4600000000000000       ,  -0.12925640795471835       ,  -0.16955814832909480     
   2.4800000000000000       ,  -0.13509520948440629       ,  -0.21789865326061400     
   2.5000000000000000       ,  -0.13999419858492718       ,  -0.26036446559014675     
   2.5200000000000000       ,  -0.14472299413925338       ,  -0.29652618220175386     
   2.5400000000000000       ,  -0.15016680257650358       ,  -0.32629620462412484     
   2.5600000000000001       ,  -0.15729641918838122       ,  -0.34992744403296289     
   2.5800000000000001       ,  -0.16713585548154072       ,  -0.36800270920430056     
   2.6000000000000001       ,  -0.18072840627259668       ,  -0.38141474123948699     
   2.6200000000000001       ,  -0.19910197980057365       ,  -0.39133707638556625     
   2.6400000000000001       ,  -0.22323450642859727       ,  -0.39918614762221949     
   2.6600000000000001       ,  -0.25402021825600141       ,  -0.40657527201801896     
   2.6800000000000002       ,  -0.29223755503177068       ,  -0.41526140837903908     
   2.7000000000000002       ,  -0.33851940305702816       ,  -0.42708580181061906     
   2.7200000000000002       ,  -0.39332631514332911       ,  -0.44390985124239990     
   2.7400000000000002       ,  -0.45692329288144806       ,  -0.46754773507146891     
   2.7600000000000002       ,  -0.52936063901875874       ,  -0.49969750106529526     
   2.7800000000000002       ,  -0.61045930897351008       ,  -0.54187246190629978     
   2.8000000000000003       ,  -0.69980110753997882       ,  -0.59533483011476540     
   2.8200000000000003       ,  -0.79672399055456711       ,  -0.66103356923970180     
   2.8399999999999999       ,  -0.90032264241368143       ,  -0.73954842698776024     
   2.8599999999999999       ,   -1.0094544094383811       ,  -0.83104204664783499     
   2.8799999999999999       ,   -1.1227505766709984       ,  -0.93522192375609081     
   2.8999999999999999       ,   -1.2386328822584383       ,   -1.0513137853542573     
   2.9199999999999999       ,   -1.3553350696756679       ,   -1.1780477214213063     
   2.9399999999999999       ,   -1.4709291843459571       ,   -1.3136580962564892     
   2.9600000000000000       ,   -1.5833562285738401       ,   -1.4558979180594045     
   2.9800000000000000       ,   -1.6904606982001094       ,   -1.6020679560432616     
   3.0000000000000000       ,   -1.7900284373418422       ,   -1.7490604763610222     
   3.0200000000000000       ,   -1.8798271655779495       ,   -1.8934170327626212     
   3.0400000000000000       ,   -1.9576489568093285       ,   -2.0313993083497390     
   3.0600000000000001       ,   -2.0213538827934476       ,   -2.1590715750299414     
   3.0800000000000001       ,   -2.0689139792054330       ,   -2.2723929316736182     
   3.1000000000000001       ,   -2.0984566502585853       ,   -2.3673171148212333     
   3.1200000000000001       ,   -2.1083066016470675       ,   -2.4398973607315706     
   3.1400000000000001       ,   -2.0970253829382983       ,   -2.4863935471126082     
   3.1600000000000001       ,   -2.0634476313789079       ,   -2.5033786679005781     
   3.1800000000000002       ,   -2.0067131408558709       ,   -2.4878416037049798     
   3.2000000000000002       ,   -1.9262939334646993       ,   -2.4372831502633487     
   3.2200000000000002       ,   -1.8220155871902042       ,   -2.3498023608640808     
   3.2400000000000002       ,   -1.6940721713458715       ,   -2.2241704465454211     
   3.2600000000000002       ,   -1.5430342606611693       ,   -2.0598897571261956     
   3.2800000000000002       ,   -1.3698496375002185       ,   -1.8572357307269889     
   3.3000000000000003       ,   -1.1758364471169527       ,   -1.6172801402637904     
   3.3200000000000003       ,  -0.96266873983134904       ,   -1.3418944704330888     
   3.3400000000000003       ,  -0.73235451259223161       ,   -1.0337328134133821     
   3.3599999999999999       ,  -0.48720654602497326       ,  -0.69619425924313227     
   3.3799999999999999       ,  -0.22980651672746233       ,  -0.33336535938566025     
   3.3999999999999999       ,    3.7036957063038917E-002  ,    5.0056159823581955E-002
   3.4199999999999999       ,   0.31033551074025689       ,   0.44885468283967961     
   3.4399999999999999       ,   0.58697249250392691       ,   0.85740470737946262     
   3.4600000000000000       ,   0.86375757949271303       ,    1.2697908112381431     
   3.4800000000000000       ,    1.1374833401935827       ,    1.6799364383725406     
   3.5000000000000000       ,    1.4049824590105060       ,    2.0817380582128457     
   3.5200000000000000       ,    1.6631842990437411       ,    2.4692010541236993     
   3.5400000000000000       ,    1.9091694752410844       ,    2.8365736097823167     
   3.5600000000000001       ,    2.1402211433796308       ,    3.1784748903136575     
   3.5800000000000001       ,    2.3538717808846874       ,    3.4900139588199868     
   3.6000000000000001       ,    2.5479443421288428       ,    3.7668961250437936     
   3.6200000000000001       ,    2.7205868111843090       ,    4.0055137840388877     
   3.6400000000000001       ,    2.8702993454455905       ,    4.2030192579780188     
   3.6600000000000001       ,    2.9959533994198431       ,    4.3573776893687839     
   3.6800000000000002       ,    3.0968024336559741       ,    4.4673986319143841     
   3.7000000000000002       ,    3.1724840428195695       ,    4.5327456266969648     
   3.7200000000000002       ,    3.2230135723012427       ,    4.5539237153203826     
   3.7400000000000002       ,    3.2487695271067452       ,    4.5322455062778442     
   3.7600000000000002       ,    3.2504713026554923       ,    4.4697770541310371     
   3.7800000000000002       ,    3.2291499772170988       ,    4.3692654117744025     
   3.8000000000000003       ,    3.1861130931747685       ,    4.2340502541818426     
   3.8200000000000003       ,    3.1229045129366000       ,    4.0679624297855481     
   3.8400000000000003       ,    3.0412605598450750       ,    3.8752126579541133     
   3.8599999999999999       ,    2.9430637407003859       ,    3.6602738461563962     
   3.8799999999999999       ,    2.8302953916299951       ,    3.4277606402711229     
   3.8999999999999999       ,    2.7049885915138479       ,    3.1823098420916818     
   3.9199999999999999       ,    2.5691826469864312       ,    2.9284652295013265     
   3.9399999999999999       ,    2.4248803716356711       ,    2.6705701013258745     
   3.9600000000000000       ,    2.2740092622956736       ,    2.4126705487745297     
   3.9800000000000000       ,    2.1183875215249706       ,    2.1584320406148185     
   4.0000000000000000       ,    1.9596956929119373       ,    1.9110714150094024     
   4.0199999999999996       ,    1.7994544712072122       ,    1.6733058151870062     
   4.0400000000000000       ,    1.6390090296792261       ,    1.4473195087860342     
   4.0599999999999996       ,    1.4795199802782668       ,    1.2347489130764802     
   4.0800000000000001       ,    1.3219608561667788       ,    1.0366855321472075     
   4.0999999999999996       ,    1.1671217888690217       ,   0.85369591910711207     
   4.1199999999999992       ,    1.0156188513034061       ,   0.68585722691406414     
   4.1399999999999997       ,   0.86790836025514517       ,   0.53280642436524184     
   4.1599999999999993       ,   0.72430528350845547       ,   0.39380084535454890     
   4.1799999999999997       ,   0.58500478286473323       ,   0.26778742299707409     
   4.1999999999999993       ,   0.45010584830961625       ,   0.15347774541627110     
   4.2199999999999998       ,   0.31963594291524944       ,    4.9425962840399171E-002
   4.2399999999999993       ,   0.19357558342418674       ,   -4.5893421890418305E-002
   4.2599999999999998       ,    7.1881827073041540E-002  ,  -0.13401073734565339     
   4.2799999999999994       ,   -4.5490281203491606E-002  ,  -0.21639194855241142     
   4.2999999999999998       ,  -0.15856912918542754       ,  -0.29437742633571751     
   4.3199999999999994       ,  -0.26735150620284720       ,  -0.36913064214612684     
   4.3399999999999999       ,  -0.37179163070138926       ,  -0.44159830436231684     
   4.3599999999999994       ,  -0.47179455989573305       ,  -0.51248296153850803     
   4.3799999999999999       ,  -0.56721410889498602       ,  -0.58222858150044943     
   4.3999999999999995       ,  -0.65785520939428377       ,  -0.65101909252965084     
   4.4199999999999999       ,  -0.74348044711704042       ,  -0.71878936399401694     
   4.4399999999999995       ,  -0.82382034004674809       ,  -0.78524762773867329     
   4.4600000000000000       ,  -0.89858676289860739       ,  -0.84990791586043013     
   4.4799999999999995       ,  -0.96748879318816972       ,  -0.91213073048130644     
   4.5000000000000000       ,   -1.0302501555206327       ,  -0.97116987939403943     
   4.5199999999999996       ,   -1.0866273769508035       ,   -1.0262232173641175     
   4.5400000000000000       ,   -1.1364277396619471       ,   -1.0764849323137786     
   4.5599999999999996       ,   -1.1795261285183460       ,   -1.1211970107625640     
   4.5800000000000001       ,   -1.2158799195108649       ,   -1.1596976062039961     
