r(A) ,   X_ray-calc  ,   X_ray_exp_renorm
   2.0000000000000000E-002  ,   -1.7828824231032219       ,   -2.0550978595164131     
   4.0000000000000001E-002  ,   -1.8200325614679866       ,   -2.0772427573811951     
   5.9999999999999998E-002  ,   -1.8805690345594155       ,   -2.1133707593938102     
   8.0000000000000002E-002  ,   -1.9624752321914372       ,   -2.1623411497321556     
  0.10000000000000001       ,   -2.0630337959773848       ,   -2.2226148255243379     
  0.12000000000000001       ,   -2.1789275706985940       ,   -2.2923095530309663     
  0.13999999999999999       ,   -2.3063625552029938       ,   -2.3692673512580895     
  0.16000000000000000       ,   -2.4412080952635327       ,   -2.4511314556363897     
  0.17999999999999999       ,   -2.5791489018319536       ,   -2.5354299582076010     
  0.19999999999999998       ,   -2.7158430328221876       ,   -2.6196629773040518     
  0.22000000000000000       ,   -2.8470797622487236       ,   -2.7013900882284090     
  0.23999999999999999       ,   -2.9689312853086176       ,   -2.7783147513521689     
  0.26000000000000001       ,   -3.0778924703866726       ,   -2.8483626047933881     
  0.28000000000000003       ,   -3.1710033580792976       ,   -2.9097507398850286     
  0.30000000000000004       ,   -3.2459498032622283       ,   -2.9610454387779441     
  0.32000000000000001       ,   -3.3011385308692471       ,   -3.0012063102040152     
  0.34000000000000002       ,   -3.3357438942415194       ,   -3.0296152934151999     
  0.36000000000000004       ,   -3.3497247458601653       ,   -3.0460895904064000     
  0.38000000000000000       ,   -3.3438110092035536       ,   -3.0508782093894524     
  0.40000000000000002       ,   -3.3194607304090176       ,   -3.0446424336006390     
  0.42000000000000004       ,   -3.2787895420942816       ,   -3.0284211441723814     
  0.44000000000000000       ,   -3.2244755434305361       ,   -3.0035825000344927     
  0.46000000000000002       ,   -3.1596435480954512       ,   -2.9717639894088141     
  0.48000000000000004       ,   -3.0877334379129575       ,   -2.9348032967964182     
  0.50000000000000000       ,   -3.0123579542190670       ,   -2.8946627601640520     
  0.52000000000000002       ,   -2.9371556384765687       ,   -2.8533504130415017     
  0.54000000000000004       ,   -2.8656447842540067       ,   -2.8128407076233217     
  0.56000000000000005       ,   -2.8010841794534036       ,   -2.7749979946444325     
  0.58000000000000007       ,   -2.7463461050512028       ,   -2.7415056955153814     
  0.59999999999999998       ,   -2.7038065281994510       ,   -2.7138038484364229     
  0.62000000000000000       ,   -2.6752567054878793       ,   -2.6930373538703551     
  0.64000000000000001       ,   -2.6618395263135382       ,   -2.6800168007308067     
  0.66000000000000003       ,   -2.6640129128870984       ,   -2.6751932411648620     
  0.68000000000000005       ,   -2.6815414936133259       ,   -2.6786477197124947     
  0.70000000000000007       ,   -2.7135166248681264       ,   -2.6900957744862199     
  0.72000000000000008       ,   -2.7584036984789275       ,   -2.7089065372455927     
  0.73999999999999999       ,   -2.8141145840291024       ,   -2.7341354891482275     
  0.76000000000000001       ,   -2.8781020597715439       ,   -2.7645694018100513     
  0.78000000000000003       ,   -2.9474722228233063       ,   -2.7987815294600185     
  0.80000000000000004       ,   -3.0191101722852824       ,   -2.8351947350762594     
  0.82000000000000006       ,   -3.0898137550060865       ,   -2.8721499457029709     
  0.84000000000000008       ,   -3.1564298720085091       ,   -2.9079771500115221     
  0.85999999999999999       ,   -3.2159877746138821       ,   -2.9410660806298088     
  0.88000000000000000       ,   -3.2658239345267539       ,   -2.9699337663759242     
  0.90000000000000002       ,   -3.3036934440546890       ,   -2.9932862923437753     
  0.92000000000000004       ,   -3.3278634750518639       ,   -3.0100723615111313     
  0.94000000000000006       ,   -3.3371850739387252       ,   -3.0195265988892945     
  0.96000000000000008       ,   -3.3311404641725737       ,   -3.0212009634232428     
  0.97999999999999998       ,   -3.3098640300777293       ,   -3.0149831162294918     
   1.0000000000000000       ,   -3.2741362261036064       ,   -3.0011011165521535     
   1.0200000000000000       ,   -3.2253507500151990       ,   -2.9801143579416336     
   1.0400000000000000       ,   -3.1654563931729989       ,   -2.9528911950869561     
   1.0600000000000001       ,   -3.0968759929483793       ,   -2.9205742253565190     
   1.0800000000000001       ,   -3.0224058212616489       ,   -2.8845346585776790     
   1.1000000000000001       ,   -2.9450995134423121       ,   -2.8463176161078385     
   1.1200000000000001       ,   -2.8681412431256326       ,   -2.8075805307361907     
   1.1400000000000001       ,   -2.7947132587306767       ,   -2.7700270606111697     
   1.1600000000000001       ,   -2.7278631000880056       ,   -2.7353390751292208     
   1.1799999999999999       ,   -2.6703758032871598       ,   -2.7051093144361751     
   1.2000000000000000       ,   -2.6246561797113266       ,   -2.6807772668529104     
   1.2200000000000000       ,   -2.5926258319147228       ,   -2.6635706541179225     
   1.2400000000000000       ,   -2.5756389628749705       ,   -2.6544546706013072     
   1.2600000000000000       ,   -2.5744202718142235       ,   -2.6540908007464217     
   1.2800000000000000       ,   -2.5890273409286215       ,   -2.6628066529888983     
   1.3000000000000000       ,   -2.6188389394799034       ,   -2.6805778146073784     
   1.3200000000000001       ,   -2.6625696445328049       ,   -2.7070222682636658     
   1.3400000000000001       ,   -2.7183101425545275       ,   -2.7414074360926386     
   1.3600000000000001       ,   -2.7835915744644231       ,   -2.7826694498446103     
   1.3800000000000001       ,   -2.8554713581527911       ,   -2.8294438037841907     
   1.4000000000000001       ,   -2.9306371032957594       ,   -2.8801061473962180     
   1.4200000000000002       ,   -3.0055245550569398       ,   -2.9328216319452984     
   1.4399999999999999       ,   -3.0764449915954613       ,   -2.9856009504676915     
   1.4600000000000000       ,   -3.1397171738537724       ,   -3.0363610136825994     
   1.4800000000000000       ,   -3.1917988159037782       ,   -3.0829880901039872     
   1.5000000000000000       ,   -3.2294126132101453       ,   -3.1234012093465604     
   1.5200000000000000       ,   -3.2496621295022368       ,   -3.1556136818144944     
   1.5400000000000000       ,   -3.2501332877581528       ,   -3.1777907208836980     
   1.5600000000000001       ,   -3.2289778171645453       ,   -3.1883013575464494     
   1.5800000000000001       ,   -3.1849757496294622       ,   -3.1857631018659194     
   1.6000000000000001       ,   -3.1175749051634600       ,   -3.1690781179500305     
   1.6200000000000001       ,   -3.0269062200770471       ,   -3.1374600254295109     
   1.6400000000000001       ,   -2.9137747180112572       ,   -3.0904508056425364     
   1.6600000000000001       ,   -2.7796268630872119       ,   -3.0279276596780198     
   1.6800000000000002       ,   -2.6264959294855283       ,   -2.9501000233052919     
   1.7000000000000000       ,   -2.4569278374077985       ,   -2.8574972768428859     
   1.7200000000000000       ,   -2.2738906102030119       ,   -2.7509479839888535     
   1.7400000000000000       ,   -2.0806711749832987       ,   -2.6315517423998376     
   1.7600000000000000       ,   -1.8807636387911644       ,   -2.5006449226288381     
   1.7800000000000000       ,   -1.6777534105288276       ,   -2.3597617058457998     
   1.8000000000000000       ,   -1.4752015988330456       ,   -2.2105919022981801     
   1.8200000000000001       ,   -1.2765339986627859       ,   -2.0549370422417526     
   1.8400000000000001       ,   -1.0849386925851745       ,   -1.8946661822717044     
   1.8600000000000001       ,  -0.90327585142508671       ,   -1.7316727682224937     
   1.8800000000000001       ,  -0.73400274400573884       ,   -1.5678337487702743     
   1.9000000000000001       ,  -0.57911628321415920       ,   -1.4049719509013248     
   1.9200000000000002       ,  -0.44011467562331225       ,   -1.2448225199922669     
   1.9399999999999999       ,  -0.31797893711879804       ,   -1.0890040044937970     
   1.9600000000000000       ,  -0.21317422141860182       ,  -0.93899443930123949     
   1.9800000000000000       ,  -0.12567011588746538       ,  -0.79611256355345839     
   2.0000000000000000       ,   -5.4978321914637571E-002  ,  -0.66150410758640399     
   2.0200000000000000       ,   -2.0548473149813114E-004  ,  -0.53613290844029338     
   2.0400000000000000       ,    3.9881604800424464E-002  ,  -0.42077647028003923     
   2.0600000000000001       ,    6.6781625977063747E-002  ,  -0.31602547991508145     
   2.0800000000000001       ,    8.2178618599212730E-002  ,  -0.22228672068909039     
   2.1000000000000001       ,    8.7859719665680416E-002  ,  -0.13978880051297662     
   2.1200000000000001       ,    8.5634278976104358E-002  ,   -6.8590119731371565E-002
   2.1400000000000001       ,    7.7257698140290765E-002  ,   -8.5885478424994905E-003
   2.1600000000000001       ,    6.4363012003805301E-002  ,    4.0467650889105360E-002
   2.1800000000000002       ,    4.8402785679178363E-002  ,    7.8968011271584704E-002
   2.2000000000000002       ,    3.0603356151574862E-002  ,   0.10742744465228186     
   2.2200000000000002       ,    1.1932830572708802E-002  ,   0.12647335599660067     
   2.2400000000000002       ,   -6.9164076982462519E-003  ,   0.13683235288386508     
   2.2600000000000002       ,   -2.5530609663923058E-002  ,   0.13931650761065958     
   2.2800000000000002       ,   -4.3763572067209475E-002  ,   0.13480906216791796     
   2.3000000000000003       ,   -6.1712749311752919E-002  ,   0.12424941991325364     
   2.3200000000000003       ,   -7.9684310580431683E-002  ,   0.10861725141686060     
   2.3399999999999999       ,   -9.8149338358832730E-002  ,    8.8915557427839131E-002
   2.3599999999999999       ,  -0.11769370447549243       ,    6.6152579338306219E-002
   2.3799999999999999       ,  -0.13896437498019124       ,    4.1322524971394194E-002
   2.3999999999999999       ,  -0.16261497837990041       ,    1.5385181016048100E-002
   2.4199999999999999       ,  -0.18925342160322528       ,   -1.0755392833869616E-002
   2.4399999999999999       ,  -0.21939415920371261       ,   -3.6272756380763396E-002
   2.4600000000000000       ,  -0.25341742407101009       ,   -6.0440095515816361E-002
   2.4800000000000000       ,  -0.29153732780609320       ,   -8.2651734487754355E-002
   2.5000000000000000       ,  -0.33378025587833293       ,  -0.10244342418532174     
   2.5200000000000000       ,  -0.37997444017287546       ,  -0.11951057948572538     
   2.5400000000000000       ,  -0.42975101544462735       ,  -0.13372357397956738     
   2.5600000000000001       ,  -0.48255628366820030       ,  -0.14513917551079242     
   2.5800000000000001       ,  -0.53767434850052387       ,  -0.15400722659547983     
   2.6000000000000001       ,  -0.59425876706979430       ,  -0.16077174346309137     
   2.6200000000000001       ,  -0.65137142176071827       ,  -0.16606572740231137     
   2.6400000000000001       ,  -0.70802646089941501       ,  -0.17069915096777061     
   2.6600000000000001       ,  -0.76323691030955132       ,  -0.17563979550617703     
   2.6800000000000002       ,  -0.81606142871406184       ,  -0.18198686896461255     
   2.7000000000000002       ,  -0.86564867455906658       ,  -0.19093761529550546     
   2.7200000000000002       ,  -0.91127687003773550       ,  -0.20374742819755773     
   2.7400000000000002       ,  -0.95238638423944966       ,  -0.22168429005048307     
   2.7600000000000002       ,  -0.98860350040915157       ,  -0.24597865823465820     
   2.7800000000000002       ,   -1.0197539663579938       ,  -0.27777020157366966     
   2.8000000000000003       ,   -1.0458654320421050       ,  -0.31805303549373742     
   2.8200000000000003       ,   -1.0671584308818889       ,  -0.36762130249409081     
   2.8399999999999999       ,   -1.0840261359706245       ,  -0.42701708286741563     
   2.8599999999999999       ,   -1.0970036922788304       ,  -0.49648268946039248     
   2.8799999999999999       ,   -1.1067284647672526       ,  -0.57591939226366595     
   2.8999999999999999       ,   -1.1138930247328203       ,  -0.66485452932835354     
   2.9199999999999999       ,   -1.1191930998981567       ,  -0.76241878871687063     
   2.9399999999999999       ,   -1.1232730183235127       ,  -0.86733519412942195     
   2.9600000000000000       ,   -1.1266713670819808       ,  -0.97792100019430972     
   2.9800000000000000       ,   -1.1297696537003132       ,   -1.0921033112291203     
   3.0000000000000000       ,   -1.1327466969904121       ,   -1.2074487917478556     
   3.0200000000000000       ,   -1.1355412851337792       ,   -1.3212073530099200     
   3.0400000000000000       ,   -1.1378253294557243       ,   -1.4303691945889117     
   3.0600000000000001       ,   -1.1389893243698133       ,   -1.5317340719693360     
   3.0800000000000001       ,   -1.1381414145250599       ,   -1.6219911701051537     
   3.1000000000000001       ,   -1.1341207904810997       ,   -1.6978075083325723     
   3.1200000000000001       ,   -1.1255255087993765       ,   -1.7559224029511606     
   3.1400000000000001       ,   -1.1107541880504010       ,   -1.7932451876008708     
   3.1600000000000001       ,   -1.0880603967863254       ,   -1.8069531534480654     
   3.1800000000000002       ,   -1.0556179508114676       ,   -1.7945865334012603     
   3.2000000000000002       ,   -1.0115948016106078       ,   -1.7541373258514354     
   3.2200000000000002       ,  -0.95423274964100080       ,   -1.6841288385647650     
   3.2400000000000002       ,  -0.88192987595046857       ,   -1.5836830328858849     
   3.2600000000000002       ,  -0.79332236945593904       ,   -1.4525730584931935     
   3.2800000000000002       ,  -0.68736234630272519       ,   -1.2912587813927858     
   3.3000000000000003       ,  -0.56338831750911811       ,   -1.1009036103262611     
   3.3200000000000003       ,  -0.42118516118502541       ,  -0.88337150323791069     
   3.3400000000000003       ,  -0.26103078969298737       ,  -0.64120366663836503     
   3.3599999999999999       ,   -8.3727158212460698E-002  ,  -0.37757512483677413     
   3.3799999999999999       ,   0.10938617791933961       ,   -9.6232009592430889E-002
   3.3999999999999999       ,   0.31643710569861544       ,   0.19858892058439959     
   3.4199999999999999       ,   0.53504504361773608       ,   0.50225640273633088     
   3.4399999999999999       ,   0.76236379277628075       ,   0.80985374750704076     
   3.4600000000000000       ,   0.99514213327159018       ,    1.1162977136682741     
   3.4800000000000000       ,    1.2298004465222439       ,    1.4164636486833442     
   3.5000000000000000       ,    1.4625209994309905       ,    1.7053131108962860     
   3.5200000000000000       ,    1.6893489659634153       ,    1.9780200629891034     
   3.5400000000000000       ,    1.9063008090130149       ,    2.2300917346021025     
   3.5600000000000001       ,    2.1094763193026784       ,    2.4574803957097480     
   3.5800000000000001       ,    2.2951704224584071       ,    2.6566825576960897     
   3.6000000000000001       ,    2.4599808285772911       ,    2.8248225173424464     
   3.6200000000000001       ,    2.6009077129127585       ,    2.9597176667259979     
   3.6400000000000001       ,    2.7154418779413665       ,    3.0599235917381349     
   3.6600000000000001       ,    2.8016382463381588       ,    3.1247576524178640     
   3.6800000000000002       ,    2.8581720559967838       ,    3.1543004556307181     
   3.7000000000000002       ,    2.8843757519734772       ,    3.1493753690032316     
   3.7200000000000002       ,    2.8802552717781578       ,    3.1115069577312338     
   3.7400000000000002       ,    2.8464851723229669       ,    3.0428599263134877     
   3.7600000000000002       ,    2.7843828195962410       ,    2.9461607899405129     
   3.7800000000000002       ,    2.6958626254748741       ,    2.8246050618193448     
   3.8000000000000003       ,    2.5833720401523732       ,    2.6817532027691904     
   3.8200000000000003       ,    2.4498116652054458       ,    2.5214189214096545     
   3.8400000000000003       ,    2.2984424158765804       ,    2.3475536250436622     
   3.8599999999999999       ,    2.1327831100381274       ,    2.1641308956851852     
   3.8799999999999999       ,    1.9565021785086334       ,    1.9750348005578207     
   3.8999999999999999       ,    1.7733073652317490       ,    1.7839556450237737     
   3.9199999999999999       ,    1.5868373104045110       ,    1.5942964466653102     
   3.9399999999999999       ,    1.4005587850590429       ,    1.4090929653170672     
   3.9600000000000000       ,    1.2176730779257403       ,    1.2309495827187651     
   3.9800000000000000       ,    1.0410346363954608       ,    1.0619927082192677     
   4.0000000000000000       ,   0.87308454998764617       ,   0.90384271749433842     
   4.0199999999999996       ,   0.71580085831760609       ,   0.75760473527459526     
   4.0400000000000000       ,   0.57066699109677166       ,   0.62387787719597987     
   4.0599999999999996       ,   0.43865893267597600       ,   0.50278189646850291     
   4.0800000000000001       ,   0.32025097692006244       ,   0.39399956327844582     
   4.0999999999999996       ,   0.21543922884992700       ,   0.29683256166590688     
   4.1199999999999992       ,   0.12378134558351118       ,   0.21026823994155575     
   4.1399999999999997       ,    4.4450416604747779E-002  ,   0.13305421256648836     
   4.1599999999999993       ,   -2.3699614927486134E-002  ,    6.3777595405961479E-002
   4.1799999999999997       ,   -8.2059973538553932E-002  ,    9.4556908950520473E-004
   4.1999999999999993       ,  -0.13218775779057473       ,   -5.6935991540138890E-002
   4.2199999999999998       ,  -0.17572469719125594       ,  -0.11128891377779727     
   4.2399999999999993       ,  -0.21431731013627206       ,  -0.16339695260052178     
   4.2599999999999998       ,  -0.24954166270815731       ,  -0.21435025504721239     
   4.2799999999999994       ,  -0.28283565021521595       ,  -0.26500199120266377     
   4.2999999999999998       ,  -0.31544133154401904       ,  -0.31593853002885003     
   4.3199999999999994       ,  -0.34835935865648904       ,  -0.36746394404393024     
   4.3399999999999999       ,  -0.38231698155949501       ,  -0.41959901237200575     
   4.3599999999999994       ,  -0.41775049727751395       ,  -0.47209428199794223     
   4.3799999999999999       ,  -0.45480237598321399       ,  -0.52445616672158801     
   4.3999999999999995       ,  -0.49333266534017639       ,  -0.57598453542168160     
   4.4199999999999999       ,  -0.53294367165246204       ,  -0.62581978654871118     
   4.4399999999999995       ,  -0.57301636837882552       ,  -0.67299704181300068     
   4.4600000000000000       ,  -0.61275651113342211       ,  -0.71650483249152530     
   4.4799999999999995       ,  -0.65124806213320785       ,  -0.75534550591767302     
   4.5000000000000000       ,  -0.68751126058893142       ,  -0.78859455208106943     
   4.5199999999999996       ,  -0.72056252838474188       ,  -0.81545614050426352     
   4.5400000000000000       ,  -0.74947337700339223       ,  -0.83531236051014102     
   4.5599999999999996       ,  -0.77342558118628657       ,  -0.84776396390219400     
   4.5800000000000001       ,  -0.79176010122825691       ,  -0.85266080406821587     
