r(A) ,   X_ray-calc  ,   X_ray_exp_renorm
   2.0000000000000000E-002  ,   -1.8135594147430678       ,   -6.2825101630585536     
   4.0000000000000001E-002  ,   -1.8457399247983144       ,   -6.2493613669382277     
   5.9999999999999998E-002  ,   -1.8982745026462320       ,   -6.1948585380063781     
   8.0000000000000002E-002  ,   -1.9695543321451334       ,   -6.1201015283486804     
  0.10000000000000001       ,   -2.0574067046217319       ,   -6.0265947662443136     
  0.12000000000000001       ,   -2.1591710952814114       ,   -5.9162128741031843     
  0.13999999999999999       ,   -2.2717920464360430       ,   -5.7911578434318995     
  0.16000000000000000       ,   -2.3919254216289287       ,   -5.6539087619221791     
  0.17999999999999999       ,   -2.5160541086142181       ,   -5.5071652648494940     
  0.19999999999999998       ,   -2.6406089123559648       ,   -5.3537860346501160     
  0.22000000000000000       ,   -2.7620902042681705       ,   -5.1967237951092100     
  0.23999999999999999       ,   -2.8771858870683098       ,   -5.0389583368529482     
  0.26000000000000001       ,   -2.9828813955901157       ,   -4.8834291661590497     
  0.28000000000000003       ,   -3.0765577759593685       ,   -4.7329693875213117     
  0.30000000000000004       ,   -3.1560743557264659       ,   -4.5902424107026150     
  0.32000000000000001       ,   -3.2198331172503338       ,   -4.4576830147768289     
  0.34000000000000002       ,   -3.2668225922830754       ,   -4.3374442053694775     
  0.36000000000000004       ,   -3.2966398797582070       ,   -4.2313511683575671     
  0.38000000000000000       ,   -3.3094902207745291       ,   -4.1408634560287823     
  0.40000000000000002       ,   -3.3061644125236374       ,   -4.0670463434398547     
  0.42000000000000004       ,   -3.2879951738105659       ,   -4.0105520676827533     
  0.44000000000000000       ,   -3.2567943570763327       ,   -3.9716114160749503     
  0.46000000000000002       ,   -3.2147736057169056       ,   -3.9500358668258584     
  0.48000000000000004       ,   -3.1644516544926007       ,   -3.9452302140526170     
  0.50000000000000000       ,   -3.1085519426425923       ,   -3.9562153351884444     
  0.52000000000000002       ,   -3.0498945367504624       ,   -3.9816604902494741     
  0.54000000000000004       ,   -2.9912865319456472       ,   -4.0199242866248559     
  0.56000000000000005       ,   -2.9354151103025079       ,   -4.0691032074642317     
  0.58000000000000007       ,   -2.8847472852350302       ,   -4.1270863934593480     
  0.59999999999999998       ,   -2.8414400574263787       ,   -4.1916151933844334     
  0.62000000000000000       ,   -2.8072642644109078       ,   -4.2603458639101337     
  0.64000000000000001       ,   -2.7835448407227421       ,   -4.3309137086450562     
  0.66000000000000003       ,   -2.7711195414950902       ,   -4.4009969035906176     
  0.68000000000000005       ,   -2.7703174461482329       ,   -4.4683782633305311     
  0.70000000000000007       ,   -2.7809577795227662       ,   -4.5310032599358623     
  0.72000000000000008       ,   -2.8023687960992554       ,   -4.5870327137913485     
  0.73999999999999999       ,   -2.8334256995957814       ,   -4.6348887297783765     
  0.76000000000000001       ,   -2.8726058450511380       ,   -4.6732926493683316     
  0.78000000000000003       ,   -2.9180588211208365       ,   -4.7012940235942731     
  0.80000000000000004       ,   -2.9676884611499657       ,   -4.7182898766657599     
  0.82000000000000006       ,   -3.0192434029059325       ,   -4.7240338171419731     
  0.84000000000000008       ,   -3.0704125240200986       ,   -4.7186348541788314     
  0.85999999999999999       ,   -3.1189214331070678       ,   -4.7025460809396291     
  0.88000000000000000       ,   -3.1626261993285771       ,   -4.6765436860656493     
  0.90000000000000002       ,   -3.1996006540779156       ,   -4.6416970374880204     
  0.92000000000000004       ,   -3.2282138899655952       ,   -4.5993308415896781     
  0.94000000000000006       ,   -3.2471950014701410       ,   -4.5509806063275207     
  0.96000000000000008       ,   -3.2556826407403037       ,   -4.4983428220067134     
  0.97999999999999998       ,   -3.2532575792785079       ,   -4.4432214119322451     
   1.0000000000000000       ,   -3.2399571466095369       ,   -4.3874720927116213     
   1.0200000000000000       ,   -3.2162711334010137       ,   -4.3329463178953649     
   1.0400000000000000       ,   -3.1831194706478003       ,   -4.2814364581544941     
   1.0600000000000001       ,   -3.1418127003103216       ,   -4.2346237974809346     
   1.0800000000000001       ,   -3.0939969092207651       ,   -4.1940308010430263     
   1.1000000000000001       ,   -3.0415853823510046       ,   -4.1609789412139717     
   1.1200000000000001       ,   -2.9866797220314791       ,   -4.1365531604286510     
   1.1400000000000001       ,   -2.9314835587228143       ,   -4.1215738108042421     
   1.1600000000000001       ,   -2.8782122333626368       ,   -4.1165766498593479     
   1.1799999999999999       ,   -2.8290019530559629       ,   -4.1218011988976757     
   1.2000000000000000       ,   -2.7858219081402709       ,   -4.1371874957586439     
   1.2200000000000000       ,   -2.7503926919242212       ,   -4.1623810067174514     
   1.2400000000000000       ,   -2.7241140922796667       ,   -4.1967452129469267     
   1.2600000000000000       ,   -2.7080049391014374       ,   -4.2393811639252341     
   1.2800000000000000       ,   -2.7026572099551767       ,   -4.2891531011186119     
   1.3000000000000000       ,   -2.7082060379798145       ,   -4.3447191063500776     
   1.3200000000000001       ,   -2.7243166538793551       ,   -4.4045656249358549     
   1.3400000000000001       ,   -2.7501886518901490       ,   -4.4670446565022015     
   1.3600000000000001       ,   -2.7845773229050694       ,   -4.5304123969746355     
   1.3800000000000001       ,   -2.8258311711410546       ,   -4.5928681521627448     
   1.4000000000000001       ,   -2.8719441472695717       ,   -4.6525924233299749     
   1.4200000000000002       ,   -2.9206206120601461       ,   -4.7077831830639534     
   1.4399999999999999       ,   -2.9693506086571579       ,   -4.7566895090497043     
   1.4600000000000000       ,   -3.0154926833718223       ,   -4.7976419161629069     
   1.4800000000000000       ,   -3.0563612649924234       ,   -4.8290789149469582     
   1.5000000000000000       ,   -3.0893154973523953       ,   -4.8495695178342189     
   1.5200000000000000       ,   -3.1118464209522525       ,   -4.8578316041835432     
   1.5400000000000000       ,   -3.1216595140017120       ,   -4.8527462324546162     
   1.5600000000000001       ,   -3.1167498242400939       ,   -4.8333681445196230     
   1.5800000000000001       ,   -3.0954672393131664       ,   -4.7989328362595494     
   1.6000000000000001       ,   -3.0565698409789266       ,   -4.7488606647153073     
   1.6200000000000001       ,   -2.9992637499163077       ,   -4.6827585213937404     
   1.6400000000000001       ,   -2.9232283743956899       ,   -4.6004196220154929     
   1.6600000000000001       ,   -2.8286265073575123       ,   -4.5018219451826962     
   1.6800000000000002       ,   -2.7160992520297667       ,   -4.3871257982999055     
   1.7000000000000000       ,   -2.5867462760876112       ,   -4.2566709026732426     
   1.7200000000000000       ,   -2.4420923797786807       ,   -4.1109732768421514     
   1.7400000000000000       ,   -2.2840417976378329       ,   -3.9507220651317110     
   1.7600000000000000       ,   -2.1148220221966425       ,   -3.7767763155319760     
   1.7800000000000000       ,   -1.9369192303018892       ,   -3.5901615664132072     
   1.8000000000000000       ,   -1.7530076005197144       ,   -3.3920659646432525     
   1.8200000000000001       ,   -1.5658749294068584       ,   -3.1838355175577222     
   1.8400000000000001       ,   -1.3783469845643437       ,   -2.9669679864572274     
   1.8600000000000001       ,   -1.1932129762137555       ,   -2.7431048672643334     
   1.8800000000000001       ,   -1.0131543926357118       ,   -2.5140208805461577     
   1.9000000000000001       ,  -0.84067923710097781       ,   -2.2816104123096146     
   1.9200000000000002       ,  -0.67806343617607900       ,   -2.0478704106915551     
   1.9399999999999999       ,  -0.52730087454430963       ,   -1.8148793514740524     
   1.9600000000000000       ,  -0.39006316396252194       ,   -1.5847720344690956     
   1.9800000000000000       ,  -0.26766988840097394       ,   -1.3597101581143247     
   2.0000000000000000       ,  -0.16106969839707785       ,   -1.1418488338084007     
   2.0200000000000000       ,   -7.0832269073951168E-002  ,  -0.93329943537828297     
   2.0400000000000000       ,    2.8491992628051563E-003  ,  -0.73608942184655413     
   2.0600000000000001       ,    6.0145560668014596E-002  ,  -0.55212001148135381     
   2.0800000000000001       ,   0.10157026492867555       ,  -0.38312280949936711     
   2.1000000000000001       ,   0.12794995237888124       ,  -0.23061668826051601     
   2.1200000000000001       ,   0.14038835076824011       ,   -9.5866375404484089E-002
   2.1400000000000001       ,   0.14022482549971621       ,    2.0155688657197055E-002
   2.1600000000000001       ,   0.12898898402579276       ,   0.11680261625817739     
   2.1800000000000002       ,   0.10835273470021778       ,   0.19377987377735625     
   2.2000000000000002       ,    8.0081155102540949E-002  ,   0.25116412279897893     
   2.2200000000000002       ,    4.5983441486091063E-002  ,   0.28941276871634175     
   2.2400000000000002       ,    7.8650973428361620E-003  ,   0.30936311822369295     
   2.2600000000000002       ,   -3.2517616448238564E-002  ,   0.31222034627160183     
   2.2800000000000002       ,   -7.3500096247608060E-002  ,   0.29953382920466914     
   2.3000000000000003       ,  -0.11354795527279490       ,   0.27316180273194690     
   2.3200000000000003       ,  -0.15129115977800817       ,   0.23522473724954737     
   2.3399999999999999       ,  -0.18555331576927236       ,   0.18804827283467865     
   2.3599999999999999       ,  -0.21537580860554467       ,   0.13409700437962996     
   2.3799999999999999       ,  -0.24003660868448659       ,    7.5900835351350948E-002
   2.3999999999999999       ,  -0.25906364790202924       ,    1.5976007902121253E-002
   2.4199999999999999       ,  -0.27224274355037431       ,   -4.3256750511064090E-002
   2.4399999999999999       ,  -0.27962010020278077       ,   -9.9554264853360178E-002
   2.4600000000000000       ,  -0.28149945873914245       ,  -0.15093026438623255     
   2.4800000000000000       ,  -0.27843398893591648       ,  -0.19572910701678523     
   2.5000000000000000       ,  -0.27121304271811908       ,  -0.23269097076136816     
   2.5200000000000000       ,  -0.26084390441698674       ,  -0.26100575533372766     
   2.5400000000000000       ,  -0.24852869739211531       ,  -0.28035319730737057     
   2.5600000000000001       ,  -0.23563663799061674       ,  -0.29092707037154947     
   2.5800000000000001       ,  -0.22367187211251957       ,  -0.29344180901208622     
   2.6000000000000001       ,  -0.21423718963486199       ,  -0.28912044634172696     
   2.6200000000000001       ,  -0.20899398926457499       ,  -0.27966337770159067     
   2.6400000000000001       ,  -0.20961896113773071       ,  -0.26719813058580355     
   2.6600000000000001       ,  -0.21775806509284204       ,  -0.25421101522490008     
   2.6800000000000002       ,  -0.23497850577962368       ,  -0.24346222371979762     
   2.7000000000000002       ,  -0.26271953679602333       ,  -0.23788661287938212     
   2.7200000000000002       ,  -0.30224305865234941       ,  -0.24048302081284742     
   2.7400000000000002       ,  -0.35458510219369382       ,  -0.25419550480383846     
   2.7600000000000002       ,  -0.42050940205438242       ,  -0.28179032500755485     
   2.7800000000000002       ,  -0.50046435530147237       ,  -0.32573281500002571     
   2.8000000000000003       ,  -0.59454472028405014       ,  -0.38806845995258915     
   2.8200000000000003       ,  -0.70245943206127048       ,  -0.47031253457749694     
   2.8399999999999999       ,  -0.82350688691200991       ,  -0.57335252954584681     
   2.8599999999999999       ,  -0.95655897411420643       ,  -0.69736731595235502     
   2.8799999999999999       ,   -1.1000550051012192       ,  -0.84176656750986056     
   2.8999999999999999       ,   -1.2520065071528870       ,   -1.0051533901774061     
   2.9199999999999999       ,   -1.4100136123029929       ,   -1.1853124150550505     
   2.9399999999999999       ,   -1.5712934860510512       ,   -1.3792248138676169     
   2.9600000000000000       ,   -1.7327209112338311       ,   -1.5831108228501198     
   2.9800000000000000       ,   -1.8908807789675979       ,   -1.7924994395186227     
   3.0000000000000000       ,   -2.0421318520538687       ,   -2.0023240193724838     
   3.0200000000000000       ,   -2.1826807696385644       ,   -2.2070415791425226     
   3.0400000000000000       ,   -2.3086648696093262       ,   -2.4007727430903092     
   3.0600000000000001       ,   -2.4162420324376583       ,   -2.5774584813535135     
   3.0800000000000001       ,   -2.5016854123873702       ,   -2.7310291144336283     
   3.1000000000000001       ,   -2.5614806342693086       ,   -2.8555805222222452     
   3.1200000000000001       ,   -2.5924228102006368       ,   -2.9455521215600231     
   3.1400000000000001       ,   -2.5917105833778264       ,   -2.9959009799274465     
   3.1600000000000001       ,   -2.5570343446302997       ,   -3.0022664250723183     
   3.1800000000000002       ,   -2.4866557995750260       ,   -2.9611196951646361     
   3.2000000000000002       ,   -2.3794761933591668       ,   -2.8698935485318162     
   3.2200000000000002       ,   -2.2350907265032243       ,   -2.7270873063788521     
   3.2400000000000002       ,   -2.0538270157457874       ,   -2.5323435197104045     
   3.2600000000000002       ,   -1.8367658607923965       ,   -2.2864933103857163     
   3.2800000000000002       ,   -1.5857430606196463       ,   -1.9915684078974172     
   3.3000000000000003       ,   -1.3033315672935717       ,   -1.6507789556760657     
   3.3200000000000003       ,  -0.99280385405871852       ,   -1.2684572577796591     
   3.3400000000000003       ,  -0.65807498836120126       ,  -0.84996874098579778     
   3.3599999999999999       ,  -0.30362751847837000       ,  -0.40159248014058357     
   3.3799999999999999       ,    6.5580117323236931E-002  ,    6.9625361568836641E-002
   3.3999999999999999       ,   0.44421938958504037       ,   0.55604092655067761     
   3.4199999999999999       ,   0.82670891502374710       ,    1.0495998776521887     
   3.4399999999999999       ,    1.2073399433524539       ,    1.5420368224480279     
   3.4600000000000000       ,    1.5804065818001407       ,    2.0250809234432161     
   3.4800000000000000       ,    1.9403370338065544       ,    2.4906614599725958     
   3.5000000000000000       ,    2.2818220374733276       ,    2.9311071064229934     
   3.5200000000000000       ,    2.5999367250721734       ,    3.3393329004573236     
   3.5400000000000000       ,    2.8902522884287190       ,    3.7090092873164635     
   3.5600000000000001       ,    3.1489341227894667       ,    4.0347082278296211     
   3.5800000000000001       ,    3.3728235256546308       ,    4.3120221274580750     
   3.6000000000000001       ,    3.5595005344007689       ,    4.5376522544361588     
   3.6200000000000001       ,    3.7073260806775523       ,    4.7094643346584810     
   3.6400000000000001       ,    3.8154623004398771       ,    4.8265101032781796     
   3.6600000000000001       ,    3.8838705432255787       ,    4.8890147193078377     
   3.6800000000000002       ,    3.9132873481605341       ,    4.8983310699688314     
   3.7000000000000002       ,    3.9051793714282921       ,    4.8568630665309813     
   3.7200000000000002       ,    3.8616789348269074       ,    4.7679610251058158     
   3.7400000000000002       ,    3.7855024927643526       ,    4.6357930996535979     
   3.7600000000000002       ,    3.6798548627524088       ,    4.4651974601310656     
   3.7800000000000002       ,    3.5483225121009081       ,    4.2615204615956159     
   3.8000000000000003       ,    3.3947595246490545       ,    4.0304464120086987     
   3.8200000000000003       ,    3.2231700738253091       ,    3.7778247063728880     
   3.8400000000000003       ,    3.0375912946855115       ,    3.5095000491301080     
   3.8599999999999999       ,    2.8419803755052819       ,    3.2311512394753947     
   3.8799999999999999       ,    2.6401094818493056       ,    2.9481435568578322     
   3.8999999999999999       ,    2.4354717907717838       ,    2.6653991748446026     
   3.9199999999999999       ,    2.2312014627047612       ,    2.3872892753286576     
   3.9399999999999999       ,    2.0300098307978836       ,    2.1175506616260971     
   3.9600000000000000       ,    1.8341394628154999       ,    1.8592287122776354     
   3.9800000000000000       ,    1.6453370729096304       ,    1.6146475140508845     
   4.0000000000000000       ,    1.4648455553878961       ,    1.3854070007999193     
   4.0199999999999996       ,    1.2934147066992892       ,    1.1724059424315150     
   4.0400000000000000       ,    1.1313295219327857       ,   0.97588871165302427     
   4.0599999999999996       ,   0.97845432375027197       ,   0.79551293889883024     
   4.0800000000000001       ,   0.83429042835955192       ,   0.63043447711744116     
   4.0999999999999996       ,   0.69804459538461205       ,   0.47940556193357825     
   4.1199999999999992       ,   0.56870516302082419       ,   0.34088168689930931     
   4.1399999999999997       ,   0.44512254894302822       ,   0.21313252914434974     
   4.1599999999999993       ,   0.32609070841521182       ,    9.4352261599006615E-002
   4.1799999999999997       ,   0.21042618609043906       ,   -1.7235229272354029E-002
   4.1999999999999993       ,    9.7041573980852197E-002  ,  -0.12328034702424708     
   4.2199999999999998       ,   -1.4989513214762898E-002  ,  -0.22522462806117405     
   4.2399999999999993       ,  -0.12637842583094816       ,  -0.32423340117880151     
   4.2599999999999998       ,  -0.23758040956916818       ,  -0.42114649659404568     
   4.2799999999999994       ,  -0.34876788555332888       ,  -0.51644841988798529     
   4.2999999999999998       ,  -0.45981886665690169       ,  -0.61025855007893448     
   4.3199999999999994       ,  -0.57032065326020287       ,  -0.70234106092092496     
   4.3399999999999999       ,  -0.67958831137786113       ,  -0.79213343511690615     
   4.3599999999999994       ,  -0.78669682474154201       ,  -0.87879167539194991     
   4.3799999999999999       ,  -0.89052525428374851       ,  -0.96124964425823300     
   4.3999999999999995       ,  -0.98981075558043952       ,   -1.0382894116414492     
   4.4199999999999999       ,   -1.0832099160193998       ,   -1.1086190770093185     
   4.4399999999999995       ,   -1.1693645936763704       ,   -1.1709542750117394     
   4.4600000000000000       ,   -1.2469692794942786       ,   -1.2240994792211934     
   4.4799999999999995       ,   -1.3148369688461832       ,   -1.2670252889389426     
   4.5000000000000000       ,   -1.3719606182844246       ,   -1.2989381140749940     
   4.5199999999999996       ,   -1.4175674734989694       ,   -1.3193390512338357     
   4.5400000000000000       ,   -1.4511638756121907       ,   -1.3280692528438229     
   4.5599999999999996       ,   -1.4725685708464267       ,   -1.3253397078031579     
   4.5800000000000001       ,   -1.4819330453762305       ,   -1.3117440498454533     
