r(A) ,   X_ray-calc  ,   X_ray_exp_renorm
   2.0000000000000000E-002  ,   -5.3465882358701364       ,   -7.8795065345494821     
   4.0000000000000001E-002  ,   -5.3068689595983756       ,   -7.7791559924870919     
   5.9999999999999998E-002  ,   -5.2415042447069089       ,   -7.6146651739815026     
   8.0000000000000002E-002  ,   -5.1517274294510464       ,   -7.3900886436970668     
  0.10000000000000001       ,   -5.0392299564290921       ,   -7.1109345054611603     
  0.12000000000000001       ,   -4.9061269069646425       ,   -6.7840026408923340     
  0.13999999999999999       ,   -4.7549137740609666       ,   -6.4171858027572322     
  0.16000000000000000       ,   -4.5884152748027045       ,   -6.0192399399415208     
  0.17999999999999999       ,   -4.4097271650460543       ,   -5.5995310919554662     
  0.19999999999999998       ,   -4.2221521703724436       ,   -5.1677669037450364     
  0.22000000000000000       ,   -4.0291312846427401       ,   -4.7337212529853741     
  0.23999999999999999       ,   -3.8341718078491418       ,   -4.3069606382527539     
  0.26000000000000001       ,   -3.6407735948500517       ,   -3.8965808437308138     
  0.28000000000000003       ,   -3.4523550623947736       ,   -3.5109619806956949     
  0.30000000000000004       ,   -3.2721805500312762       ,   -3.1575493240308838     
  0.32000000000000001       ,   -3.1032906476493580       ,   -2.8426664387133216     
  0.34000000000000002       ,   -2.9484370855344122       ,   -2.5713659600957475     
  0.36000000000000004       ,   -2.8100237294507093       ,   -2.3473220933974472     
  0.38000000000000000       ,   -2.6900551317641201       ,   -2.1727674781455595     
  0.40000000000000002       ,   -2.5900939592334646       ,   -2.0484755722767916     
  0.42000000000000004       ,   -2.5112284492365236       ,   -1.9737882001716525     
  0.44000000000000000       ,   -2.4540508404866950       ,   -1.9466864312034056     
  0.46000000000000002       ,   -2.4186474846944934       ,   -1.9639015609399217     
  0.48000000000000004       ,   -2.4046010764482904       ,   -2.0210617029985043     
  0.50000000000000000       ,   -2.4110051454766488       ,   -2.1128684076941853     
  0.52000000000000002       ,   -2.4364906452983233       ,   -2.2332968394795789     
  0.54000000000000004       ,   -2.4792641530565542       ,   -2.3758123964540010     
  0.56000000000000005       ,   -2.5371568759518075       ,   -2.5335962609722436     
  0.58000000000000007       ,   -2.6076833496440468       ,   -2.6997722404266975     
  0.59999999999999998       ,   -2.6881084231353172       ,   -2.8676273919321567     
  0.62000000000000000       ,   -2.7755208627886772       ,   -3.0308193148437312     
  0.64000000000000001       ,   -2.8669116847417806       ,   -3.1835636227555915     
  0.66000000000000003       ,   -2.9592551487288876       ,   -3.3207959456365774     
  0.68000000000000005       ,   -3.0495902248206934       ,   -3.4383038296808270     
  0.70000000000000007       ,   -3.1351002839532285       ,   -3.5328250580590814     
  0.72000000000000008       ,   -3.2131887677169679       ,   -3.6021101664682988     
  0.73999999999999999       ,   -3.2815486650724912       ,   -3.6449482269000573     
  0.76000000000000001       ,   -3.3382237636185810       ,   -3.6611562740983494     
  0.78000000000000003       ,   -3.3816598486257194       ,   -3.6515340052193386     
  0.80000000000000004       ,   -3.4107442898032563       ,   -3.6177865501386499     
  0.82000000000000006       ,   -3.4248327769728570       ,   -3.5624191475937810     
  0.84000000000000008       ,   -3.4237623326487170       ,   -3.4886084362411367     
  0.85999999999999999       ,   -3.4078501312899561       ,   -3.4000557517102452     
  0.88000000000000000       ,   -3.3778780794609804       ,   -3.3008282903632784     
  0.90000000000000002       ,   -3.3350635449345232       ,   -3.1951942454120306     
  0.92000000000000004       ,   -3.2810170518186603       ,   -3.0874580375209479     
  0.94000000000000006       ,   -3.2176881687944037       ,   -2.9818015547597332     
  0.96000000000000008       ,   -3.1473011945267833       ,   -2.8821368986920750     
  0.97999999999999998       ,   -3.0722825750908713       ,   -2.7919755250100668     
   1.0000000000000000       ,   -2.9951822609845973       ,   -2.7143178956471239     
   1.0200000000000000       ,   -2.9185914159095785       ,   -2.6515668574817477     
   1.0400000000000000       ,   -2.8450590181043247       ,   -2.6054669675635149     
   1.0600000000000001       ,   -2.7770099422431462       ,   -2.5770709359955015     
   1.0800000000000001       ,   -2.7166670731617168       ,   -2.5667332961459204     
   1.1000000000000001       ,   -2.6659798822400060       ,   -2.5741303783214811     
   1.1200000000000001       ,   -2.6265616964103438       ,   -2.5983046960947211     
   1.1400000000000001       ,   -2.5996376145834290       ,   -2.6377309894678462     
   1.1600000000000001       ,   -2.5860046856077239       ,   -2.6904004366599414     
   1.1799999999999999       ,   -2.5860055669102562       ,   -2.7539189714652443     
   1.2000000000000000       ,   -2.5995164469436185       ,   -2.8256152441817193     
   1.2200000000000000       ,   -2.6259495522774157       ,   -2.9026535521879095     
   1.2400000000000000       ,   -2.6642700874430711       ,   -2.9821470449760987     
   1.2600000000000000       ,   -2.7130269887477598       ,   -3.0612666739326144     
   1.2800000000000000       ,   -2.7703964283554692       ,   -3.1373416982497950     
   1.3000000000000000       ,   -2.8342365973949120       ,   -3.2079480572225250     
   1.3200000000000001       ,   -2.9021519407911978       ,   -3.2709815521153227     
   1.3400000000000001       ,   -2.9715647241922021       ,   -3.3247135192163202     
   1.3600000000000001       ,   -3.0397915947357603       ,   -3.3678274874071885     
   1.3800000000000001       ,   -3.1041226597768539       ,   -3.3994361640445043     
   1.4000000000000001       ,   -3.1619005554086623       ,   -3.4190789467221006     
   1.4200000000000002       ,   -3.2105970109124793       ,   -3.4267009806344304     
   1.4399999999999999       ,   -3.2478845342396183       ,   -3.4226155387512631     
   1.4600000000000000       ,   -3.2717010422743722       ,   -3.4074521649962555     
   1.4800000000000000       ,   -3.2803055300765909       ,   -3.3820935635884957     
   1.5000000000000000       ,   -3.2723232051054358       ,   -3.3476046204549572     
   1.5200000000000000       ,   -3.2467788929606858       ,   -3.3051571909982704     
   1.5400000000000000       ,   -3.2031179361438658       ,   -3.2559543748961772     
   1.5600000000000001       ,   -3.1412142413044748       ,   -3.2011579221725803     
   1.5800000000000001       ,   -3.0613655674331657       ,   -3.1418221813933944     
   1.6000000000000001       ,   -2.9642765716077113       ,   -3.0788376227897043     
   1.6200000000000001       ,   -2.8510305249933205       ,   -3.0128864645182492     
   1.6400000000000001       ,   -2.7230509659163920       ,   -2.9444123222980374     
   1.6600000000000001       ,   -2.5820548568323338       ,   -2.8736051185149392     
   1.6800000000000002       ,   -2.4299990480001448       ,   -2.8004017566668979     
   1.7000000000000000       ,   -2.2690220153658891       ,   -2.7245023224631040     
   1.7200000000000000       ,   -2.1013829291100912       ,   -2.6454008460564511     
   1.7400000000000000       ,   -1.9294001210869973       ,   -2.5624289818401338     
   1.7600000000000000       ,   -1.7553909555468299       ,   -2.4748103617833901     
   1.7800000000000000       ,   -1.5816149725595436       ,   -2.3817228807842747     
   1.8000000000000000       ,   -1.4102219746134264       ,   -2.2823657988955066     
   1.8200000000000001       ,   -1.2432064734638322       ,   -2.1760283111501870     
   1.8400000000000001       ,   -1.0823696179204545       ,   -2.0621561507870205     
   1.8600000000000001       ,  -0.92928939679298073       ,   -1.9404128593663776     
   1.8800000000000001       ,  -0.78529956847521187       ,   -1.8107325745898903     
   1.9000000000000001       ,  -0.65147742376428897       ,   -1.6733615443282597     
   1.9200000000000002       ,  -0.52864015535120246       ,   -1.5288860582940706     
   1.9399999999999999       ,  -0.41734929901402090       ,   -1.3782450765950769     
   1.9600000000000000       ,  -0.31792243957252292       ,   -1.2227265022981637     
   1.9800000000000000       ,  -0.23045114897734384       ,   -1.0639467649755694     
   2.0000000000000000       ,  -0.15482395216124245       ,  -0.90381412362130376     
   2.0200000000000000       ,   -9.0753003643451902E-002  ,  -0.74447682896686129     
   2.0400000000000000       ,   -3.7803106857650197E-002  ,  -0.58825797604696028     
   2.0600000000000001       ,    4.5782814407294530E-003  ,  -0.43757949840020344     
   2.0800000000000001       ,    3.7031350413549394E-002  ,  -0.29487827885149859     
   2.1000000000000001       ,    6.0255704660907128E-002  ,  -0.16251775560945325     
   2.1200000000000001       ,    7.4984602970358888E-002  ,   -4.2698668437686098E-002
   2.1400000000000001       ,    8.1962461366957950E-002  ,    6.2627294492057478E-002
   2.1600000000000001       ,    8.1926186285406849E-002  ,   0.15183722911009684     
   2.1800000000000002       ,    7.5590660754102479E-002  ,   0.22370660447509833     
   2.2000000000000002       ,    6.3638461917534264E-002  ,   0.27746553258729556     
   2.2200000000000002       ,    4.6713653878664982E-002  ,   0.31283902777710415     
   2.2400000000000002       ,    2.5419286833676103E-002  ,   0.33006916807809561     
   2.2600000000000002       ,    3.1805168208999735E-004  ,   0.32991777043915532     
   2.2800000000000002       ,   -2.8064603063197507E-002  ,   0.31364895955542532     
   2.3000000000000003       ,   -5.9235681992099491E-002  ,   0.28299181615679481     
   2.3200000000000003       ,   -9.2729018337166846E-002  ,   0.24008410264336824     
   2.3399999999999999       ,  -0.12809964792073766       ,   0.18739884932910431     
   2.3599999999999999       ,  -0.16491896170644685       ,   0.12765631134954419     
   2.3799999999999999       ,  -0.20277131755808600       ,    6.3724444654770923E-002
   2.3999999999999999       ,  -0.24125265184948441       ,   -1.4884271668420617E-003
   2.4199999999999999       ,  -0.27997145908315441       ,   -6.5144697497891729E-002
   2.4399999999999999       ,  -0.31855231212565882       ,  -0.12458802340930089     
   2.4600000000000000       ,  -0.35664188769370131       ,  -0.17744897910948706     
   2.4800000000000000       ,  -0.39391725263971278       ,  -0.22174156496014463     
   2.5000000000000000       ,  -0.43009596783997367       ,  -0.25594659345459830     
   2.5200000000000000       ,  -0.46494738912489192       ,  -0.27907840594609701     
   2.5400000000000000       ,  -0.49830439881442712       ,  -0.29073195129720564     
   2.5600000000000001       ,  -0.53007469570825694       ,  -0.29110795937812162     
   2.5800000000000001       ,  -0.56025071264722348       ,  -0.28101474283395272     
   2.6000000000000001       ,  -0.58891722362069421       ,  -0.26184603007580592     
   2.6200000000000001       ,  -0.61625574899714641       ,  -0.23553513840303994     
   2.6400000000000001       ,  -0.64254496735637345       ,  -0.20448670421885104     
   2.6600000000000001       ,  -0.66815649253249432       ,  -0.17148806276432638     
   2.6800000000000002       ,  -0.69354556924013788       ,  -0.13960317892773003     
   2.7000000000000002       ,  -0.71923647213707498       ,  -0.11205274199854187     
   2.7200000000000002       ,  -0.74580265146368885       ,   -9.2084622716858688E-002
   2.7400000000000002       ,  -0.77384194199784972       ,   -8.2839327165115870E-002
   2.7600000000000002       ,  -0.80394742838861977       ,   -8.7215350989851531E-002
   2.7800000000000002       ,  -0.83667482586011677       ,  -0.10773942734719431     
   2.8000000000000003       ,  -0.87250747772820558       ,  -0.14644656772822717     
   2.8200000000000003       ,  -0.91182027770645335       ,  -0.20477451822533621     
   2.8399999999999999       ,  -0.95484398436555318       ,  -0.28347680349150456     
   2.8599999999999999       ,   -1.0016314978692979       ,  -0.38255792182471759     
   2.8799999999999999       ,   -1.0520277079709108       ,  -0.50123350869333005     
   2.8999999999999999       ,   -1.1056444925346094       ,  -0.63791742905593241     
   2.9199999999999999       ,   -1.1618423457326081       ,  -0.79023682172862553     
   2.9399999999999999       ,   -1.2197199457559020       ,  -0.95507513564208790     
   2.9600000000000000       ,   -1.2781127376089980       ,   -1.1286422038000905     
   2.9800000000000000       ,   -1.3356013145137162       ,   -1.3065694323212425     
   3.0000000000000000       ,   -1.3905300415075810       ,   -1.4840272745197836     
   3.0200000000000000       ,   -1.4410359892235620       ,   -1.6558613468221066     
   3.0400000000000000       ,   -1.4850878487052532       ,   -1.8167428543064590     
   3.0600000000000001       ,   -1.5205340949129853       ,   -1.9613284541841864     
   3.0800000000000001       ,   -1.5451592735051147       ,   -2.0844243155633477     
   3.1000000000000001       ,   -1.5567469187935117       ,   -2.1811489471237033     
   3.1200000000000001       ,   -1.5531472861259550       ,   -2.2470893679736466     
   3.1400000000000001       ,   -1.5323478137234996       ,   -2.2784453910982934     
   3.1600000000000001       ,   -1.4925440296917769       ,   -2.2721571666465570     
   3.1800000000000002       ,   -1.4322084995854172       ,   -2.2260116803672418     
   3.2000000000000002       ,   -1.3501553756809790       ,   -2.1387246011425334     
   3.2200000000000002       ,   -1.2455981649021841       ,   -2.0099946957065034     
   3.2400000000000002       ,   -1.1181984785591623       ,   -1.8405289487061032     
   3.2600000000000002       ,  -0.96810376056902436       ,   -1.6320375093066841     
   3.2800000000000002       ,  -0.79597230497646343       ,   -1.3871985964419380     
   3.3000000000000003       ,  -0.60298425845033155       ,   -1.1095944975749146     
   3.3200000000000003       ,  -0.39083774609940342       ,  -0.80362075495236240     
   3.3400000000000003       ,  -0.16172974403737142       ,  -0.47437151504414349     
   3.3599999999999999       ,    8.1678167677965791E-002  ,  -0.12750479040517798     
   3.3799999999999999       ,   0.33630852138253592       ,   0.23090797806952640     
   3.3999999999999999       ,   0.59872999294988150       ,   0.59454318819397001     
   3.4199999999999999       ,   0.86523112068811081       ,   0.95699199237950383     
   3.4399999999999999       ,    1.1319036618943223       ,    1.3119275533176376     
   3.4600000000000000       ,    1.3947331798133162       ,    1.6532673861777054     
   3.4800000000000000       ,    1.6496941765083677       ,    1.9753257702117537     
   3.5000000000000000       ,    1.8928469009816846       ,    2.2729516188072991     
   3.5200000000000000       ,    2.1204328745872156       ,    2.5416477566701445     
   3.5400000000000000       ,    2.3289661914858013       ,    2.7776682440866285     
   3.5600000000000001       ,    2.5153177708640091       ,    2.9780911847148612     
   3.5800000000000001       ,    2.6767899562276578       ,    3.1408653251913830     
   3.6000000000000001       ,    2.8111791678569715       ,    3.2648296697562964     
   3.6200000000000001       ,    2.9168247065165240       ,    3.3497062576977181     
   3.6400000000000001       ,    2.9926422656808795       ,    3.3960671524047505     
   3.6600000000000001       ,    3.0381412192142632       ,    3.4052775362477057     
   3.6800000000000002       ,    3.0534252930321979       ,    3.3794175659337751     
   3.7000000000000002       ,    3.0391767829467136       ,    3.3211862925462463     
   3.7200000000000002       ,    2.9966250263604524       ,    3.2337914677819648     
   3.7400000000000002       ,    2.9275003527562293       ,    3.1208294267918926     
   3.7600000000000002       ,    2.8339752081490306       ,    2.9861594480921267     
   3.7800000000000002       ,    2.7185945547745050       ,    2.8337770378958109     
   3.8000000000000003       ,    2.5841979747173052       ,    2.6676904716961847     
   3.8200000000000003       ,    2.4338361434157401       ,    2.4918046577622008     
   3.8400000000000003       ,    2.2706844779880520       ,    2.3098159787289698     
   3.8599999999999999       ,    2.0979568018713741       ,    2.1251212370188903     
   3.8799999999999999       ,    1.9188218010521767       ,    1.9407431999815583     
   3.8999999999999999       ,    1.7363248818365775       ,    1.7592745372657057     
   3.9199999999999999       ,    1.5533177830766736       ,    1.5828411941738778     
   3.9399999999999999       ,    1.3723979579162040       ,    1.4130854799053267     
   3.9600000000000000       ,    1.1958593353397395       ,    1.2511683979893045     
   3.9800000000000000       ,    1.0256556164523016       ,    1.0977900360816950     
   4.0000000000000000       ,   0.86337677261344514       ,   0.95322618971351958     
   4.0199999999999996       ,   0.71023891149473251       ,   0.81737884248747128     
   4.0400000000000000       ,   0.56708718230275801       ,   0.68983768261380707     
   4.0599999999999996       ,   0.43441092180798691       ,   0.56994951693603035     
   4.0800000000000001       ,   0.31236981619834076       ,   0.45689225800302413     
   4.0999999999999996       ,   0.20082948595838748       ,   0.34975011121602451     
   4.1199999999999992       ,    9.9404605230342141E-002  ,   0.24758667610877361     
   4.1399999999999997       ,    7.5074536568956012E-003  ,   0.14951289163019368     
   4.1599999999999993       ,   -7.5600325686352873E-002  ,    5.4747088197130256E-002
   4.1799999999999997       ,  -0.15075502088693396       ,   -3.7335156795449999E-002
   4.1999999999999993       ,  -0.21883939765701549       ,  -0.12716314810989143     
   4.2199999999999998       ,  -0.28073455056195362       ,  -0.21494640061110157     
   4.2399999999999993       ,  -0.33727688615420476       ,  -0.30066377196619709     
   4.2599999999999998       ,  -0.38922177100340200       ,  -0.38406638888412287     
   4.2799999999999994       ,  -0.43721502865522699       ,  -0.46469375479487668     
   4.2999999999999998       ,  -0.48177308140194414       ,  -0.54190186634284343     
   4.3199999999999994       ,  -0.52327212239835008       ,  -0.61490166792379486     
   4.3399999999999999       ,  -0.56194628875957409       ,  -0.68280575684135025     
   4.3599999999999994       ,  -0.59789440439682739       ,  -0.74468093197685825     
   4.3799999999999999       ,  -0.63109448923619704       ,  -0.79960396744928919     
   4.3999999999999995       ,  -0.66142490437031221       ,  -0.84671789630118621     
   4.4199999999999999       ,  -0.68869073373354028       ,  -0.88528610971849864     
   4.4399999999999995       ,  -0.71265380253326294       ,  -0.91474171182560893     
   4.4600000000000000       ,  -0.73306460831165299       ,  -0.93472981124267873     
   4.4799999999999995       ,  -0.74969439620646849       ,  -0.94514076666756996     
   4.5000000000000000       ,  -0.76236564629458015       ,  -0.94613281936506743     
   4.5199999999999996       ,  -0.77097935493613612       ,  -0.93814302220033174     
   4.5400000000000000       ,  -0.77553767757466330       ,  -0.92188589208893179     
   4.5599999999999996       ,  -0.77616074825839121       ,  -0.89833974842633746     
   4.5800000000000001       ,  -0.77309678940735005       ,  -0.86872123171758198     
