r(A) ,   X_ray-calc  ,   X_ray_exp_renorm
   2.0000000000000000E-002  ,  -0.51992558360953200       ,   -1.1547276631833463     
   4.0000000000000001E-002  ,  -0.58247398982423382       ,   -1.2032048882389084     
   5.9999999999999998E-002  ,  -0.68466529556835465       ,   -1.2824589577360328     
   8.0000000000000002E-002  ,  -0.82348955630270237       ,   -1.3902321098149595     
  0.10000000000000001       ,  -0.99487828470065631       ,   -1.5234698683398136     
  0.12000000000000001       ,   -1.1938434838728613       ,   -1.6784228368237555     
  0.13999999999999999       ,   -1.4146475313493554       ,   -1.8507712027966328     
  0.16000000000000000       ,   -1.6509977243570610       ,   -2.0357675021177370     
  0.17999999999999999       ,   -1.8962584161331615       ,   -2.2283925543205840     
  0.19999999999999998       ,   -2.1436730587192052       ,   -2.4235190307521410     
  0.22000000000000000       ,   -2.3865881424420698       ,   -2.6160768732257074     
  0.23999999999999999       ,   -2.6186709975415812       ,   -2.8012147505208209     
  0.26000000000000001       ,   -2.8341136990396518       ,   -2.9744519235865323     
  0.28000000000000003       ,   -3.0278158803424722       ,   -3.1318152798862382     
  0.30000000000000004       ,   -3.1955400915765511       ,   -3.2699568773370831     
  0.32000000000000001       ,   -3.3340344025104751       ,   -3.3862480859714559     
  0.34000000000000002       ,   -3.4411182055195644       ,   -3.4788473017634565     
  0.36000000000000004       ,   -3.5157285726453402       ,   -3.5467391979021610     
  0.38000000000000000       ,   -3.5579260083584856       ,   -3.5897445362626135     
  0.40000000000000002       ,   -3.5688599589815579       ,   -3.6085006457428710     
  0.42000000000000004       ,   -3.5506959327757648       ,   -3.6044137435745829     
  0.44000000000000000       ,   -3.5065074946949615       ,   -3.5795852905866918     
  0.46000000000000002       ,   -3.4401376735435463       ,   -3.5367154939898793     
  0.48000000000000004       ,   -3.3560354091066946       ,   -3.4789878676398134     
  0.50000000000000000       ,   -3.2590735325164846       ,   -3.4099394011003317     
  0.52000000000000002       ,   -3.1543553833594129       ,   -3.3333213524881034     
  0.54000000000000004       ,   -3.0470175005884728       ,   -3.2529559503429333     
  0.56000000000000005       ,   -2.9420358707939336       ,   -3.1725943584673661     
  0.58000000000000007       ,   -2.8440429776093428       ,   -3.0957811244309830     
  0.59999999999999998       ,   -2.7571623818599700       ,   -3.0257300045840636     
  0.62000000000000000       ,   -2.6848667959138282       ,   -2.9652155506926827     
  0.64000000000000001       ,   -2.6298646295745223       ,   -2.9164841771530621     
  0.66000000000000003       ,   -2.5940188190352149       ,   -2.8811876304731641     
  0.68000000000000005       ,   -2.5783004518047128       ,   -2.8603408863612740     
  0.70000000000000007       ,   -2.5827783207849069       ,   -2.8543055398143315     
  0.72000000000000008       ,   -2.6066441341786515       ,   -2.8627987675682625     
  0.73999999999999999       ,   -2.6482717295460039       ,   -2.8849269682267469     
  0.76000000000000001       ,   -2.7053073433964858       ,   -2.9192422604706767     
  0.78000000000000003       ,   -2.7747868218171843       ,   -2.9638191787527322     
  0.80000000000000004       ,   -2.8532746668049893       ,   -3.0163481799058438     
  0.82000000000000006       ,   -2.9370190339287965       ,   -3.0742419893990225     
  0.84000000000000008       ,   -3.0221162577781739       ,   -3.1347503930042069     
  0.85999999999999999       ,   -3.1046782007547562       ,   -3.1950788323086794     
  0.88000000000000000       ,   -3.1809957062196297       ,   -3.2525060977351208     
  0.90000000000000002       ,   -3.2476916863671956       ,   -3.3044965302641711     
  0.92000000000000004       ,   -3.3018578756603842       ,   -3.3488024355684436     
  0.94000000000000006       ,   -3.3411700096997246       ,   -3.3835528677532509     
  0.96000000000000008       ,   -3.3639771157217746       ,   -3.4073255343031872     
  0.97999999999999998       ,   -3.3693616858086828       ,   -3.4191992839197227     
   1.0000000000000000       ,   -3.3571687027883987       ,   -3.4187854353536586     
   1.0200000000000000       ,   -3.3280027531513627       ,   -3.4062370558345432     
   1.0400000000000000       ,   -3.2831937404898759       ,   -3.3822361684191291     
   1.0600000000000001       ,   -3.2247329563445688       ,   -3.3479597244280455     
   1.0800000000000001       ,   -3.1551824242531628       ,   -3.3050259871084386     
   1.1000000000000001       ,   -3.0775614624701357       ,   -3.2554237051253958     
   1.1200000000000001       ,   -2.9952152720988696       ,   -3.2014270823638196     
   1.1400000000000001       ,   -2.9116710182052103       ,   -3.1455000512810645     
   1.1600000000000001       ,   -2.8304873081165884       ,   -3.0901937135177939     
   1.1799999999999999       ,   -2.7551031689599230       ,   -3.0380410124292299     
   1.2000000000000000       ,   -2.6886925805930653       ,   -2.9914527427021347     
   1.2200000000000000       ,   -2.6340303351907810       ,   -2.9526188837153255     
   1.2400000000000000       ,   -2.5933744850274181       ,   -2.9234189734162346     
   1.2600000000000000       ,   -2.5683699283681189       ,   -2.9053448316484163     
   1.2800000000000000       ,   -2.5599768004775951       ,   -2.8994384146415109     
   1.3000000000000000       ,   -2.5684263196385735       ,   -2.9062469586476913     
   1.3200000000000001       ,   -2.5932056286580054       ,   -2.9257968766802875     
   1.3400000000000001       ,   -2.6330720156811100       ,   -2.9575871363987445     
   1.3600000000000001       ,   -2.6860957405792507       ,   -3.0006020988520796     
   1.3800000000000001       ,   -2.7497295805096167       ,   -3.0533430663503238     
   1.4000000000000001       ,   -2.8209021838592099       ,   -3.1138771011743200     
   1.4200000000000002       ,   -2.8961314249880310       ,   -3.1799010607539926     
   1.4399999999999999       ,   -2.9716532166817502       ,   -3.2488182715623561     
   1.4600000000000000       ,   -3.0435606898357990       ,   -3.3178248513253723     
   1.4800000000000000       ,   -3.1079483095930822       ,   -3.3840024004596292     
   1.5000000000000000       ,   -3.1610553744053478       ,   -3.4444136269192405     
   1.5200000000000000       ,   -3.1994034409384255       ,   -3.4961974464267320     
   1.5400000000000000       ,   -3.2199225262960778       ,   -3.5366602095540198     
   1.5600000000000001       ,   -3.2200614442570346       ,   -3.5633599403297205     
   1.5800000000000001       ,   -3.1978783110676816       ,   -3.5741808153011108     
   1.6000000000000001       ,   -3.1521080792040976       ,   -3.5673955505332682     
   1.6200000000000001       ,   -3.0822048895337462       ,   -3.5417138768671981     
   1.6400000000000001       ,   -2.9883580347940346       ,   -3.4963158484889654     
   1.6600000000000001       ,   -2.8714813594087407       ,   -3.4308693226920091     
   1.6800000000000002       ,   -2.7331769410271520       ,   -3.3455315454669421     
   1.7000000000000000       ,   -2.5756748676132939       ,   -3.2409353546656763     
   1.7200000000000000       ,   -2.4017518030259564       ,   -3.1181610479614248     
   1.7400000000000000       ,   -2.2146317906463935       ,   -2.9786954370956362     
   1.7600000000000000       ,   -2.0178733510722853       ,   -2.8243800065583642     
   1.7800000000000000       ,   -1.8152473650815144       ,   -2.6573504012310964     
   1.8000000000000000       ,   -1.6106104831344441       ,   -2.4799696751273395     
   1.8200000000000001       ,   -1.4077788614994085       ,   -2.2947578380717819     
   1.8400000000000001       ,   -1.2104068943503907       ,   -2.1043202392508276     
   1.8600000000000001       ,   -1.0218753002110854       ,   -1.9112772305830601     
   1.8800000000000001       ,  -0.84519244631776447       ,   -1.7181973672511104     
   1.9000000000000001       ,  -0.68291217855361674       ,   -1.5275361393795703     
   1.9200000000000002       ,  -0.53707069552894038       ,   -1.3415819024013633     
   1.9399999999999999       ,  -0.40914419511249350       ,   -1.1624103008509064     
   1.9600000000000000       ,  -0.30002816484313904       ,  -0.99184807913803119     
   1.9800000000000000       ,  -0.21003831989888452       ,  -0.83144676169971021     
   2.0000000000000000       ,  -0.13893234905412180       ,  -0.68246628180449087     
   2.0200000000000000       ,   -8.5950843894993217E-002  ,  -0.54586826001726652     
   2.0400000000000000       ,   -4.9875089912724158E-002  ,  -0.42231829484713462     
   2.0600000000000001       ,   -2.9098816027577940E-002  ,  -0.31219634182794626     
   2.0800000000000001       ,   -2.1710552338210422E-002  ,  -0.21561403267987153     
   2.1000000000000001       ,   -2.5582949068395307E-002  ,  -0.13243762943947782     
   2.1200000000000001       ,   -3.8465270838021412E-002  ,   -6.2315222237566505E-002
   2.1400000000000001       ,   -5.8075300777572919E-002  ,   -4.7067630074127051E-003
   2.1600000000000001       ,   -8.2187063202848923E-002  ,    4.1084423213075608E-002
   2.1800000000000002       ,  -0.10871108981464148       ,    7.5879899577951243E-002
   2.2000000000000002       ,  -0.13576439524252520       ,   0.10059524416609317     
   2.2200000000000002       ,  -0.16172787093718863       ,   0.11621093995809881     
   2.2400000000000002       ,  -0.18528942587768613       ,   0.12374570604616894     
   2.2600000000000002       ,  -0.20547186965568542       ,   0.12423271701188543     
   2.2800000000000002       ,  -0.22164521827778672       ,   0.11869892863501619     
   2.3000000000000003       ,  -0.23352377554519618       ,   0.10814751440789616     
   2.3200000000000003       ,  -0.24114897447807687       ,    9.3543230169774810E-002
   2.3399999999999999       ,  -0.24485952780682976       ,    7.5800373080348329E-002
   2.3599999999999999       ,  -0.24525091149835815       ,    5.5772893293329517E-002
   2.3799999999999999       ,  -0.24312657255912667       ,    3.4246156552335316E-002
   2.3999999999999999       ,  -0.23944349908679488       ,    1.1929845114437386E-002
   2.4199999999999999       ,  -0.23525490950318262       ,   -1.0548478405007186E-002
   2.4399999999999999       ,  -0.23165280772232480       ,   -3.2649538610677223E-002
   2.4600000000000000       ,  -0.22971301611307940       ,   -5.3928522432438897E-002
   2.4800000000000000       ,  -0.23044504842099844       ,   -7.4041391323534586E-002
   2.5000000000000000       ,  -0.23474883517608489       ,   -9.2751295863439359E-002
   2.5200000000000000       ,  -0.24337988357876242       ,  -0.10993488780796776     
   2.5400000000000000       ,  -0.25692396473246631       ,  -0.12558816053866759     
   2.5600000000000001       ,  -0.27578189788562152       ,  -0.13983130297320315     
   2.5800000000000001       ,  -0.30016446962446486       ,  -0.15291193550356841     
   2.6000000000000001       ,  -0.33009701117124013       ,  -0.16520601917948000     
   2.6200000000000001       ,  -0.36543268327132006       ,  -0.17721569890158093     
   2.6400000000000001       ,  -0.40587310742605381       ,  -0.18956336313008504     
   2.6600000000000001       ,  -0.45099465295911506       ,  -0.20298127905001739     
   2.6800000000000002       ,  -0.50027845598459852       ,  -0.21829629276637363     
   2.7000000000000002       ,  -0.55314211843533601       ,  -0.23640926537345749     
   2.7200000000000002       ,  -0.60897101744736970       ,  -0.25826914113136207     
   2.7400000000000002       ,  -0.66714724683814552       ,  -0.28484180424322164     
   2.7600000000000002       ,  -0.72707440722176497       ,  -0.31707416427284718     
   2.7800000000000002       ,  -0.78819674865492717       ,  -0.35585420364969444     
   2.8000000000000003       ,  -0.85001153443819222       ,  -0.40196800932250487     
   2.8200000000000003       ,  -0.91207391803119042       ,  -0.45605507924072852     
   2.8399999999999999       ,  -0.97399408547384736       ,  -0.51856342793666199     
   2.8599999999999999       ,   -1.0354268900186732       ,  -0.58970619993554863     
   2.8799999999999999       ,   -1.0960546700171401       ,  -0.66942162254643467     
   2.8999999999999999       ,   -1.1555643720845123       ,  -0.75733818057547231     
   2.9199999999999999       ,   -1.2136204773673935       ,  -0.85274686729937044     
   2.9399999999999999       ,   -1.2698355300991413       ,  -0.95458225458652801     
   2.9600000000000000       ,   -1.3237402787538894       ,   -1.0614139299226253     
   2.9800000000000000       ,   -1.3747555494029340       ,   -1.1714495726251635     
   3.0000000000000000       ,   -1.4221679714852162       ,   -1.2825505928257035     
   3.0200000000000000       ,   -1.4651115663560867       ,   -1.3922608455528129     
   3.0400000000000000       ,   -1.5025569920896322       ,   -1.4978484724021519     
   3.0600000000000001       ,   -1.5333099225543736       ,   -1.5963604315163855     
   3.0800000000000001       ,   -1.5560196379396456       ,   -1.6846887717136512     
   3.1000000000000001       ,   -1.5691984349976014       ,   -1.7596472087654687     
   3.1200000000000001       ,   -1.5712519489883814       ,   -1.8180560917463608     
   3.1400000000000001       ,   -1.5605199388536928       ,   -1.8568334254486785     
   3.1600000000000001       ,   -1.5353265471336852       ,   -1.8730892602677671     
   3.1800000000000002       ,   -1.4940385315834663       ,   -1.8642204908573077     
   3.2000000000000002       ,   -1.4351295005875579       ,   -1.8280029335413097     
   3.2200000000000002       ,   -1.3572477917229078       ,   -1.7626774907441887     
   3.2400000000000002       ,   -1.2592853317416943       ,   -1.6670272652945000     
   3.2600000000000002       ,   -1.1404446226447287       ,   -1.5404426606434747     
   3.2800000000000002       ,   -1.0003009237224894       ,   -1.3829717924184950     
   3.3000000000000003       ,  -0.83885674975100000       ,   -1.1953539352046640     
   3.3200000000000003       ,  -0.65658598188203166       ,  -0.97903422438778298     
   3.3400000000000003       ,  -0.45446518563845417       ,  -0.73615841050153907     
   3.3599999999999999       ,  -0.23399013996701939       ,  -0.46954710337008015     
   3.3799999999999999       ,    2.8239122951165428E-003  ,  -0.18264962306119886     
   3.3999999999999999       ,   0.25345919810352424       ,   0.12052173020203717     
   3.4199999999999999       ,   0.51492979863635069       ,   0.43547549012032344     
   3.4399999999999999       ,   0.78383308267562934       ,   0.75734077647555609     
   3.4600000000000000       ,    1.0564171164053360       ,    1.0809802516029114     
   3.4800000000000000       ,    1.3286623315693118       ,    1.4011130436919896     
   3.5000000000000000       ,    1.5963751405236541       ,    1.7124440001677741     
   3.5200000000000000       ,    1.8552906705111936       ,    2.0097953562880164     
   3.5400000000000000       ,    2.1011813726953030       ,    2.2882367594715403     
   3.5600000000000001       ,    2.3299679625042979       ,    2.5432095861872654     
   3.5800000000000001       ,    2.5378289804197611       ,    2.7706416276765893     
   3.6000000000000001       ,    2.7213052350245337       ,    2.9670485001327180     
   3.6200000000000001       ,    2.8773955058165281       ,    3.1296185456494610     
   3.6400000000000001       ,    3.0036401391194230       ,    3.2562785186323797     
   3.6600000000000001       ,    3.0981895578022214       ,    3.3457379801900262     
   3.6800000000000002       ,    3.1598552104992121       ,    3.3975110281088763     
   3.7000000000000002       ,    3.1881410897986675       ,    3.4119147470686815     
   3.7200000000000002       ,    3.1832546285494039       ,    3.3900445453273180     
   3.7400000000000002       ,    3.1460965129498577       ,    3.3337273216393037     
   3.7600000000000002       ,    3.0782297022373930       ,    3.2454541511057822     
   3.7800000000000002       ,    2.9818286884092111       ,    3.1282948635220760     
   3.8000000000000003       ,    2.8596107365012076       ,    2.9857974872899264     
   3.8200000000000003       ,    2.7147514889287612       ,    2.8218760239566838     
   3.8400000000000003       ,    2.5507878711576453       ,    2.6406903848146794     
   3.8599999999999999       ,    2.3715116789482855       ,    2.4465225483645821     
   3.8799999999999999       ,    2.1808575424300227       ,    2.2436530777103854     
   3.8999999999999999       ,    1.9827891372343363       ,    2.0362420675959521     
   3.9199999999999999       ,    1.7811875413529281       ,    1.8282183749950265     
   3.9399999999999999       ,    1.5797455176350008       ,    1.6231806336860914     
   3.9600000000000000       ,    1.3818712411029994       ,    1.4243130760708387     
   3.9800000000000000       ,    1.1906045983931670       ,    1.2343186033069313     
   4.0000000000000000       ,    1.0085486796445429       ,    1.0553708802519632     
   4.0199999999999996       ,   0.83781848162019301       ,   0.88908651044833020     
   4.0400000000000000       ,   0.68000816897386862       ,   0.73651759616348433     
   4.0599999999999996       ,   0.53617752527936213       ,   0.59816423804552554     
   4.0800000000000001       ,   0.40685749520276321       ,   0.47400580680381271     
   4.0999999999999996       ,   0.29207400291857910       ,   0.36354915274174576     
   4.1199999999999992       ,   0.19138855768676907       ,   0.26589133286757721     
   4.1399999999999997       ,   0.10395355166084137       ,   0.17979395129094103     
   4.1599999999999993       ,    2.8579640769699155E-002  ,   0.10376584412636461     
   4.1799999999999997       ,   -3.6187803690326828E-002  ,    3.6150607806679926E-002
   4.1999999999999993       ,   -9.1986462552891196E-002  ,   -2.4784623092698504E-002
   4.2199999999999998       ,  -0.14055248730409767       ,   -8.0762693900358479E-002
   4.2399999999999993       ,  -0.18363700444335856       ,  -0.13341560308853589     
   4.2599999999999998       ,  -0.22292700585141442       ,  -0.18421237559849046     
   4.2799999999999994       ,  -0.25997366048045079       ,  -0.23439825250636742     
   4.2999999999999998       ,  -0.29613070016587328       ,  -0.28494728899084903     
   4.3199999999999994       ,  -0.33250504940584441       ,  -0.33652985478305625     
   4.3399999999999999       ,  -0.36992130671558648       ,  -0.38949588488083892     
   4.3599999999999994       ,  -0.40890106781391566       ,  -0.44387405984582878     
   4.3799999999999999       ,  -0.44965743461515295       ,  -0.49938643162714258     
   4.3999999999999995       ,  -0.49210440585549448       ,  -0.55547737922958662     
   4.4199999999999999       ,  -0.53588022202553132       ,  -0.61135520375913810     
   4.4399999999999995       ,  -0.58038316461649353       ,  -0.66604417696012563     
   4.4600000000000000       ,  -0.62481781063627739       ,  -0.71844446037618737     
   4.4799999999999995       ,  -0.66824933770521089       ,  -0.76739702858907888     
   4.5000000000000000       ,  -0.70966317847347460       ,  -0.81175056971785542     
   4.5199999999999996       ,  -0.74802714654794666       ,  -0.85042730445939108     
   4.5400000000000000       ,  -0.78235310536416081       ,  -0.88248476109067564     
   4.5599999999999996       ,  -0.81175532693250840       ,  -0.90717076246845574     
   4.5800000000000001       ,  -0.83550288426023678       ,  -0.92396921162903167     
