r(A) ,   X_ray-calc  ,   X_ray_exp_renorm
   2.0000000000000000E-002  ,   -2.7509129249461783       ,   -4.5032999838023597     
   4.0000000000000001E-002  ,   -2.7666136974953877       ,   -4.4795389441609919     
   5.9999999999999998E-002  ,   -2.7920370327309190       ,   -4.4404713450205726     
   8.0000000000000002E-002  ,   -2.8260988780363498       ,   -4.3868855597782090     
  0.10000000000000001       ,   -2.8673459039304463       ,   -4.3198599618339308     
  0.12000000000000001       ,   -2.9140166231213551       ,   -4.2407382795461581     
  0.13999999999999999       ,   -2.9641155149084639       ,   -4.1510988992698143     
  0.16000000000000000       ,   -3.0154970679319115       ,   -4.0527188297597130     
  0.17999999999999999       ,   -3.0659562394928868       ,   -3.9475331681628192     
  0.19999999999999998       ,   -3.1133215598567210       ,   -3.8375910165473872     
  0.22000000000000000       ,   -3.1555469963225811       ,   -3.7250088857711456     
  0.23999999999999999       ,   -3.1907987391647175       ,   -3.6119226881892361     
  0.26000000000000001       ,   -3.2175332779490340       ,   -3.5004394603569948     
  0.28000000000000003       ,   -3.2345634937607470       ,   -3.3925899700869513     
  0.30000000000000004       ,   -3.2411099858844645       ,   -3.2902833480976788     
  0.32000000000000001       ,   -3.2368354601837588       ,   -3.1952648427499968     
  0.34000000000000002       ,   -3.2218607057723534       ,   -3.1090777273450088     
  0.36000000000000004       ,   -3.1967614477572268       ,   -3.0330302941603269     
  0.38000000000000000       ,   -3.1625461554955794       ,   -2.9681687495088580     
  0.40000000000000002       ,   -3.1206156753134100       ,   -2.9152566819915298     
  0.42000000000000004       ,   -3.0727063114222481       ,   -2.8747616148131550     
  0.44000000000000000       ,   -3.0208186677006861       ,   -2.8468489762016320     
  0.46000000000000002       ,   -2.9671351576286615       ,   -2.8313836338365252     
  0.48000000000000004       ,   -2.9139295653965287       ,   -2.8279389444537451     
  0.50000000000000000       ,   -2.8634723783525340       ,   -2.8358130735118912     
  0.52000000000000002       ,   -2.8179357954863171       ,   -2.8540521472897513     
  0.54000000000000004       ,   -2.7793023408178916       ,   -2.8814796164263212     
  0.56000000000000005       ,   -2.7492808732000111       ,   -2.9167310410434459     
  0.58000000000000007       ,   -2.7292334905993934       ,   -2.9582933582980981     
  0.59999999999999998       ,   -2.7201163892596072       ,   -3.0045475681784293     
  0.62000000000000000       ,   -2.7224371740379811       ,   -3.0538136766974526     
  0.64000000000000001       ,   -2.7362304486072340       ,   -3.1043966707243231     
  0.66000000000000003       ,   -2.7610527703259695       ,   -3.1546322680368339     
  0.68000000000000005       ,   -2.7959972647353135       ,   -3.2029311912935867     
  0.70000000000000007       ,   -2.8397273910491525       ,   -3.2478207559546508     
  0.72000000000000008       ,   -2.8905285654533426       ,   -3.2879826390381837     
  0.73999999999999999       ,   -2.9463756155212746       ,   -3.3222858061522516     
  0.76000000000000001       ,   -3.0050133865175295       ,   -3.3498137155354017     
  0.78000000000000003       ,   -3.0640472754230172       ,   -3.3698850858675327     
  0.80000000000000004       ,   -3.1210400534157325       ,   -3.3820677044188843     
  0.82000000000000006       ,   -3.1736110692367157       ,   -3.3861849579341414     
  0.84000000000000008       ,   -3.2195338153427837       ,   -3.3823149841189895     
  0.85999999999999999       ,   -3.2568278905674384       ,   -3.3707825599148036     
  0.88000000000000000       ,   -3.2838416051596466       ,   -3.3521440569318162     
  0.90000000000000002       ,   -3.2993218380320499       ,   -3.3271659975411718     
  0.92000000000000004       ,   -3.3024682571651351       ,   -3.2967979305821062     
  0.94000000000000006       ,   -3.2929696321924800       ,   -3.2621405073513077     
  0.96000000000000008       ,   -3.2710206783337235       ,   -3.2244097712081161     
  0.97999999999999998       ,   -3.2373186444662552       ,   -3.1848987734296945     
   1.0000000000000000       ,   -3.1930396641300196       ,   -3.1449376907052371     
   1.0200000000000000       ,   -3.1397956942909229       ,   -3.1058536439669315     
   1.0400000000000000       ,   -3.0795736404525536       ,   -3.0689314035699824     
   1.0600000000000001       ,   -3.0146589772777421       ,   -3.0353761129963890     
   1.0800000000000001       ,   -2.9475467929480228       ,   -3.0062790744788530     
   1.1000000000000001       ,   -2.8808436884842727       ,   -2.9825875187201341     
   1.1200000000000001       ,   -2.8171643303401432       ,   -2.9650791318874830     
   1.1400000000000001       ,   -2.7590266714320038       ,   -2.9543419419474457     
   1.1600000000000001       ,   -2.7087499141250237       ,   -2.9507599796078510     
   1.1799999999999999       ,   -2.6683591866661205       ,   -2.9545049336133409     
   1.2000000000000000       ,   -2.6395006466747097       ,   -2.9655338231187169     
   1.2200000000000000       ,   -2.6233703223100391       ,   -2.9835925185363283     
   1.2400000000000000       ,   -2.6206594701159394       ,   -3.0082247635053103     
   1.2600000000000000       ,   -2.6315185898314892       ,   -3.0387861907639548     
   1.2800000000000000       ,   -2.6555415163400298       ,   -3.0744626891920341     
   1.3000000000000000       ,   -2.6917702361929021       ,   -3.1142923725453837     
   1.3200000000000001       ,   -2.7387202814972609       ,   -3.1571903256219533     
   1.3400000000000001       ,   -2.7944257687765903       ,   -3.2019752626197695     
   1.3600000000000001       ,   -2.8565024054892909       ,   -3.2473972256945061     
   1.3800000000000001       ,   -2.9222261111876180       ,   -3.2921654781966319     
   1.4000000000000001       ,   -2.9886243198082738       ,   -3.3349758043878208     
   1.4200000000000002       ,   -3.0525765663025535       ,   -3.3745365119657396     
   1.4399999999999999       ,   -3.1109206318931255       ,   -3.4095925407350181     
   1.4600000000000000       ,   -3.1605603393471204       ,   -3.4389472046357561     
   1.4800000000000000       ,   -3.1985710585365088       ,   -3.4614812288459285     
   1.5000000000000000       ,   -3.2222991028860188       ,   -3.4761688822289476     
   1.5200000000000000       ,   -3.2294514627476252       ,   -3.4820911413829183     
   1.5400000000000000       ,   -3.2181727202557497       ,   -3.4784459495996773     
   1.5600000000000001       ,   -3.1871065046295417       ,   -3.4645557463498839     
   1.5800000000000001       ,   -3.1354394556195686       ,   -3.4398725354827286     
   1.6000000000000001       ,   -3.0629263407892151       ,   -3.4039808292297056     
   1.6200000000000001       ,   -2.9698956920936346       ,   -3.3565988476294728     
   1.6400000000000001       ,   -2.8572360599984337       ,   -3.2975783678192423     
   1.6600000000000001       ,   -2.7263637002883589       ,   -3.2269036048725921     
   1.6800000000000002       ,   -2.5791731819289443       ,   -3.1446894670528760     
   1.7000000000000000       ,   -2.4179730082127446       ,   -3.0511794664138181     
   1.7200000000000000       ,   -2.2454088554723000       ,   -2.9467434847733571     
   1.7400000000000000       ,   -2.0643774354482201       ,   -2.8318755004216047     
   1.7600000000000000       ,   -1.8779342652649511       ,   -2.7071912785064551     
   1.7800000000000000       ,   -1.6891987744111929       ,   -2.5734259243928528     
   1.8000000000000000       ,   -1.5012601881448342       ,   -2.4314311011313721     
   1.8200000000000001       ,   -1.3170875038570293       ,   -2.2821716260729330     
   1.8400000000000001       ,   -1.1394466289659835       ,   -2.1267210937308318     
   1.8600000000000001       ,  -0.97082738860468465       ,   -1.9662561275198553     
   1.8800000000000001       ,  -0.81338265575070268       ,   -1.8020488462100064     
   1.9000000000000001       ,  -0.66888132607176110       ,   -1.6354571446956561     
   1.9200000000000002       ,  -0.53867627778538596       ,   -1.4679124343520240     
   1.9399999999999999       ,  -0.42368784801036075       ,   -1.3009045655275870     
   1.9600000000000000       ,  -0.32440274671989483       ,   -1.1359637616058713     
   1.9800000000000000       ,  -0.24088774226548906       ,  -0.97463952689113609     
   2.0000000000000000       ,  -0.17281691175577973       ,  -0.81847664410156074     
   2.0200000000000000       ,  -0.11951077608657242       ,  -0.66898854488691117     
   2.0400000000000000       ,   -7.9985250557522578E-002  ,  -0.52762851080926787     
   2.0600000000000001       ,   -5.3008051232422734E-002  ,  -0.39575933412425840     
   2.0800000000000001       ,   -3.7160013495112991E-002  ,  -0.27462222854134910     
   2.1000000000000001       ,   -3.0898706859896985E-002  ,  -0.16530592097005675     
   2.1200000000000001       ,   -3.2621768422239940E-002  ,   -6.8716967517968894E-002
   2.1400000000000001       ,   -4.0727521083267250E-002  ,    1.4447587038887048E-002
   2.1600000000000001       ,   -5.3670682177353088E-002  ,    8.3724053961171621E-002
   2.1800000000000002       ,   -7.0011289836315826E-002  ,   0.13890131170403944     
   2.2000000000000002       ,   -8.8455361602469765E-002  ,   0.18003431125079647     
   2.2200000000000002       ,  -0.10788623332405935       ,   0.20745092054701877     
   2.2400000000000002       ,  -0.12738598558845415       ,   0.22175132059118954     
   2.2600000000000002       ,  -0.14624682865919450       ,   0.22379938015463061     
   2.2800000000000002       ,  -0.16397276424926982       ,   0.21470569138704845     
   2.3000000000000003       ,  -0.18027225394711585       ,   0.19580223666830140     
   2.3200000000000003       ,  -0.19504298231664546       ,   0.16860896806414419     
   2.3399999999999999       ,  -0.20835009309806773       ,   0.13479290315993675     
   2.3599999999999999       ,  -0.22039948849680310       ,    9.6120662279476896E-002
   2.3799999999999999       ,  -0.23150790712562389       ,    5.4405678898563313E-002
   2.3999999999999999       ,  -0.24207153278268365       ,    1.1451594069817422E-002
   2.4199999999999999       ,  -0.25253483514794489       ,   -3.1006416037532181E-002
   2.4399999999999999       ,  -0.26336120999736545       ,   -7.1360444737161077E-002
   2.4600000000000000       ,  -0.27500677977946725       ,  -0.10818673420735256     
   2.4800000000000000       ,  -0.28789844778100415       ,  -0.14029852106585827     
   2.5000000000000000       ,  -0.30241698570576403       ,  -0.16679276557675793     
   2.5200000000000000       ,  -0.31888559231079877       ,  -0.18708878828052344     
   2.5400000000000000       ,  -0.33756400790268559       ,  -0.20095702452132344     
   2.5600000000000001       ,  -0.35864792434831133       ,  -0.20853637117779797     
   2.5800000000000001       ,  -0.38227311052830232       ,  -0.21033893451399210     
   2.6000000000000001       ,  -0.40852339512145808       ,  -0.20724138402249254     
   2.6200000000000001       ,  -0.43744142629581978       ,  -0.20046256219035877     
   2.6400000000000001       ,  -0.46904097245865156       ,  -0.19152747960749386     
   2.6600000000000001       ,  -0.50331944744792700       ,  -0.18221832214073957     
   2.6800000000000002       ,  -0.54026934144102479       ,  -0.17451359403772007     
   2.7000000000000002       ,  -0.57988731548038397       ,  -0.17051699911695556     
   2.7200000000000002       ,  -0.62217986899943434       ,  -0.17237810295940861     
   2.7400000000000002       ,  -0.66716470844406550       ,  -0.18220720427907239     
   2.7600000000000002       ,  -0.71486721999363978       ,  -0.20198715690169214     
   2.7800000000000002       ,  -0.76531176657162303       ,  -0.23348511063918218     
   2.8000000000000003       ,  -0.81850787264482106       ,  -0.27816726818757931     
   2.8200000000000003       ,  -0.87443171210585580       ,  -0.33711977766444073     
   2.8399999999999999       ,  -0.93300365652832240       ,  -0.41097879191648667     
   2.8599999999999999       ,  -0.99406295519916210       ,  -0.49987252565042389     
   2.8799999999999999       ,   -1.0573408875573949       ,  -0.60337783329379602     
   2.8999999999999999       ,   -1.1224339378734791       ,  -0.72049342193202792     
   2.9199999999999999       ,   -1.1887786786759815       ,  -0.84963131630168376     
   2.9399999999999999       ,   -1.2556301042969544       ,  -0.98862762188132791     
   2.9600000000000000       ,   -1.3220451234036559       ,   -1.1347730059902554     
   2.9800000000000000       ,   -1.3868727979822124       ,   -1.2848626563972212     
   3.0000000000000000       ,   -1.4487527085707561       ,   -1.4352648049863794     
   3.0200000000000000       ,   -1.5061225383508228       ,   -1.5820062442628835     
   3.0400000000000000       ,   -1.5572356126112525       ,   -1.7208726407866810     
   3.0600000000000001       ,   -1.6001887191730111       ,   -1.8475208851361078     
   3.0800000000000001       ,   -1.6329600865583005       ,   -1.9576002342358816     
   3.1000000000000001       ,   -1.6534569291276131       ,   -2.0468786178945524     
   3.1200000000000001       ,   -1.6595715025695223       ,   -2.1113702130252534     
   3.1400000000000001       ,   -1.6492441699516514       ,   -2.1474602482477514     
   3.1600000000000001       ,   -1.6205315785145711       ,   -2.1520229959829402     
   3.1800000000000002       ,   -1.5716777096347321       ,   -2.1225290416052243     
   3.2000000000000002       ,   -1.5011853057892650       ,   -2.0571381876326256     
   3.2200000000000002       ,   -1.4078850128065592       ,   -1.9547747482933990     
   3.2400000000000002       ,   -1.2909995133987850       ,   -1.8151825043355030     
   3.2600000000000002       ,   -1.1501999749862912       ,   -1.6389572034709390     
   3.2800000000000002       ,  -0.98565229267206922       ,   -1.4275551883324733     
   3.3000000000000003       ,  -0.79805087378359607       ,   -1.1832774880443941     
   3.3200000000000003       ,  -0.58863807594491635       ,  -0.90922949587911173     
   3.3400000000000003       ,  -0.35920786409580568       ,  -0.60925714693160316     
   3.3599999999999999       ,  -0.11209277724295075       ,  -0.28786127875228146     
   3.3799999999999999       ,   0.14986612628939489       ,    4.9907422588637874E-002
   3.3999999999999999       ,   0.42336606759691875       ,   0.39856984398574663     
   3.4199999999999999       ,   0.70470519643180474       ,   0.75235264080001885     
   3.4399999999999999       ,   0.98985959849799987       ,    1.1053311840839317     
   3.4600000000000000       ,    1.2745726104315216       ,    1.4515769418669078     
   3.4800000000000000       ,    1.5544538979097955       ,    1.7853048258168358     
   3.5000000000000000       ,    1.8250853424295843       ,    2.1010160337650099     
   3.5200000000000000       ,    2.0821304741171263       ,    2.3936320684309247     
   3.5400000000000000       ,    2.3214439951162680       ,    2.6586159082890384     
   3.5600000000000001       ,    2.5391778698510596       ,    2.8920767377138330     
   3.5800000000000001       ,    2.7318805191520750       ,    3.0908551952558749     
   3.6000000000000001       ,    2.8965858441836634       ,    3.2525867517188201     
   3.6200000000000001       ,    3.0308891175506143       ,    3.3757415605453542     
   3.6400000000000001       ,    3.1330072022481019       ,    3.4596399059915024     
   3.6600000000000001       ,    3.2018210791097936       ,    3.5044431819191773     
   3.6800000000000002       ,    3.2368992610508447       ,    3.5111211371777999     
   3.7000000000000002       ,    3.2385013254722956       ,    3.4813968941024691     
   3.7200000000000002       ,    3.2075614801661487       ,    3.4176719575215406     
   3.7400000000000002       ,    3.1456527670909593       ,    3.3229340580036193     
   3.7600000000000002       ,    3.0549331763293512       ,    3.2006511932315287     
   3.7800000000000002       ,    2.9380755639971698       ,    3.0546556277012265     
   3.8000000000000003       ,    2.7981838192167587       ,    2.8890218703727211     
   3.8200000000000003       ,    2.6386981855763714       ,    2.7079427645103551     
   3.8400000000000003       ,    2.4632929944074275       ,    2.5156077911870618     
   3.8599999999999999       ,    2.2757702976014302       ,    2.3160875106819789     
   3.8799999999999999       ,    2.0799529882116015       ,    2.1132277524850807     
   3.8999999999999999       ,    1.8795809644947368       ,    1.9105567280230202     
   3.9199999999999999       ,    1.6782137293261359       ,    1.7112076981798736     
   3.9399999999999999       ,    1.4791425291808931       ,    1.5178592016091583     
   3.9600000000000000       ,    1.2853147370750875       ,    1.3326941640486962     
   3.9800000000000000       ,    1.0992726883030306       ,    1.1573784896723451     
   4.0000000000000000       ,   0.92310860647345216       ,   0.99305901022603804     
   4.0199999999999996       ,   0.75843663308120679       ,   0.84037996350670208     
   4.0400000000000000       ,   0.60638232142683923       ,   0.69951651574256446     
   4.0599999999999996       ,   0.46758930081505024       ,   0.57022325660888573     
   4.0800000000000001       ,   0.34224218521046812       ,   0.45189510194270444     
   4.0999999999999996       ,   0.23010421634802683       ,   0.34363765489544545     
   4.1199999999999992       ,   0.13056761700075256       ,   0.24434381405677535     
   4.1399999999999997       ,    4.2714205005297448E-002  ,   0.15277328490245384     
   4.1599999999999993       ,   -3.4616501736053691E-002  ,    6.7631651537777615E-002
   4.1799999999999997       ,  -0.10275466356331379       ,   -1.2354203286355827E-002
   4.1999999999999993       ,  -0.16312603723151919       ,   -8.8367287970635769E-002
   4.2199999999999998       ,  -0.21717944918968271       ,  -0.16144089505236900     
   4.2399999999999993       ,  -0.26631867799173120       ,  -0.23241033159997967     
   4.2599999999999998       ,  -0.31184132726115599       ,  -0.30187758747167354     
   4.2799999999999994       ,  -0.35488689958961378       ,  -0.37018995601338944     
   4.2999999999999998       ,  -0.39639582908987930       ,  -0.43743300804272872     
   4.3199999999999994       ,  -0.43708071599942089       ,  -0.50343770343049354     
   4.3399999999999999       ,  -0.47741045298177803       ,  -0.56780083007372673     
   4.3599999999999994       ,  -0.51760736317745315       ,  -0.62991741116922928     
   4.3799999999999999       ,  -0.55765690854445626       ,  -0.68902323992592007     
   4.3999999999999995       ,  -0.59732899688265007       ,  -0.74424530470648464     
   4.4199999999999999       ,  -0.63620943882736070       ,  -0.79465757188820019     
   4.4399999999999995       ,  -0.67373970119816085       ,  -0.83933940906297000     
   4.4600000000000000       ,  -0.70926278629503725       ,  -0.87743386351572539     
   4.4799999999999995       ,  -0.74207285003308820       ,  -0.90820306136649886     
   4.5000000000000000       ,  -0.77146606281207553       ,  -0.93107815765576663     
   4.5199999999999996       ,  -0.79679021869145361       ,  -0.94570153869176932     
   4.5400000000000000       ,  -0.81749070901964493       ,  -0.95195934261861681     
   4.5599999999999996       ,  -0.83315068977460627       ,  -0.95000280616767852     
   4.5800000000000001       ,  -0.84352357684608026       ,  -0.94025744568728942     
