r(A) ,   X_ray-calc  ,   X_ray_exp_renorm
   2.0000000000000000E-002  ,  -0.37447542958056218       ,   -1.1588066385217446     
   4.0000000000000001E-002  ,  -0.44022283158856479       ,   -1.2074551051711302     
   5.9999999999999998E-002  ,  -0.54765107845730121       ,   -1.2869891327962648     
   8.0000000000000002E-002  ,  -0.69361131739492521       ,   -1.3951429841893999     
  0.10000000000000001       ,  -0.87384681503876283       ,   -1.5288513935425785     
  0.12000000000000001       ,   -1.0831379554532499       ,   -1.6843517199509987     
  0.13999999999999999       ,   -1.3154794313837541       ,   -1.8573088915815481     
  0.16000000000000000       ,   -1.5642831864127569       ,   -2.0429586742881165     
  0.17999999999999999       ,   -1.8225997482446841       ,   -2.2362641577844569     
  0.19999999999999998       ,   -2.0833499529912514       ,   -2.4320799015736858     
  0.22000000000000000       ,   -2.3395587205094710       ,   -2.6253179379282052     
  0.23999999999999999       ,   -2.5845825134718297       ,   -2.8111097987206990     
  0.26000000000000001       ,   -2.8123223978394329       ,   -2.9849589170780657     
  0.28000000000000003       ,   -3.0174152077231153       ,   -3.1428781457881927     
  0.30000000000000004       ,   -3.1953961797504742       ,   -3.2815077164531337     
  0.32000000000000001       ,   -3.3428275269891676       ,   -3.3982097136978568     
  0.34000000000000002       ,   -3.4573887270248491       ,   -3.4911360281899348     
  0.36000000000000004       ,   -3.5379257523063483       ,   -3.5592677465645273     
  0.38000000000000000       ,   -3.5844580172407294       ,   -3.6024249975535461     
  0.40000000000000002       ,   -3.5981433963501757       ,   -3.6212473613641132     
  0.42000000000000004       ,   -3.5812032207432369       ,   -3.6171460225683099     
  0.44000000000000000       ,   -3.5368106272389421       ,   -3.5922298652232296     
  0.46000000000000002       ,   -3.4689469604065652       ,   -3.5492086347873779     
  0.48000000000000004       ,   -3.3822320630353939       ,   -3.4912770906030608     
  0.50000000000000000       ,   -3.2817351932850030       ,   -3.4219847163430415     
  0.52000000000000002       ,   -3.1727739444124485       ,   -3.3450960211179970     
  0.54000000000000004       ,   -3.0607088934099673       ,   -3.2644467351586064     
  0.56000000000000005       ,   -2.9507417572647574       ,   -3.1838012729282656     
  0.58000000000000007       ,   -2.8477245906244626       ,   -3.1067167028034808     
  0.59999999999999998       ,   -2.7559870286705341       ,   -3.0364181334501601     
  0.62000000000000000       ,   -2.6791877871625189       ,   -2.9756899174978972     
  0.64000000000000001       ,   -2.6201956110685747       ,   -2.9267864046069718     
  0.66000000000000003       ,   -2.5810036556821729       ,   -2.8913651759366541     
  0.68000000000000005       ,   -2.5626799382739041       ,   -2.8704447925089069     
  0.70000000000000007       ,   -2.5653550677122867       ,   -2.8643881266236404     
  0.72000000000000008       ,   -2.5882470004825819       ,   -2.8729113559681250     
  0.73999999999999999       ,   -2.6297211410881562       ,   -2.8951177225765963     
  0.76000000000000001       ,   -2.6873827582219092       ,   -2.9295542306147393     
  0.78000000000000003       ,   -2.7581974768217066       ,   -2.9742886129951547     
  0.80000000000000004       ,   -2.8386345758498255       ,   -3.0270031682898062     
  0.82000000000000006       ,   -2.9248270104970575       ,   -3.0851014826447782     
  0.84000000000000008       ,   -3.0127415146769376       ,   -3.1458236269387334     
  0.85999999999999999       ,   -3.0983518442767433       ,   -3.2063651712236898     
  0.88000000000000000       ,   -3.1778082021155760       ,   -3.2639952934854657     
  0.90000000000000002       ,   -3.2475961394471753       ,   -3.3161693777090933     
  0.92000000000000004       ,   -3.3046787429436648       ,   -3.3606317897818818     
  0.94000000000000006       ,   -3.3466166671206490       ,   -3.3955049748550108     
  0.96000000000000008       ,   -3.3716615277559865       ,   -3.4193616162880964     
  0.97999999999999998       ,   -3.3788192919576177       ,   -3.4312773088955244     
   1.0000000000000000       ,   -3.3678815390487351       ,   -3.4308619984452875     
   1.0200000000000000       ,   -3.3394237731094250       ,   -3.4182692928636489     
   1.0400000000000000       ,   -3.2947712904645581       ,   -3.3941836243946684     
   1.0600000000000001       ,   -3.2359343912366869       ,   -3.3597861018374560     
   1.0800000000000001       ,   -3.1655159229363008       ,   -3.3167007048137513     
   1.1000000000000001       ,   -3.0865952096099285       ,   -3.2669232070708474     
   1.1200000000000001       ,   -3.0025933117988237       ,   -3.2127358459216637     
   1.1400000000000001       ,   -2.9171252473222911       ,   -3.1566112574513014     
   1.1600000000000001       ,   -2.8338452561338965       ,   -3.1011095548457512     
   1.1799999999999999       ,   -2.7562913991177083       ,   -3.0487726288629950     
   1.2000000000000000       ,   -2.6877357355701013       ,   -3.0020197901129739     
   1.2200000000000000       ,   -2.6310460321771489       ,   -2.9630487538867580     
   1.2400000000000000       ,   -2.5885644322077641       ,   -2.9337456974365952     
   1.2600000000000000       ,   -2.5620077810945978       ,   -2.9156077103302747     
   1.2800000000000000       ,   -2.5523933952476288       ,   -2.9096804294174654     
   1.3000000000000000       ,   -2.5599930131388806       ,   -2.9165130240149475     
   1.3200000000000001       ,   -2.5843165247235018       ,   -2.9361320004377296     
   1.3400000000000001       ,   -2.6241258836581869       ,   -2.9680345564919608     
   1.3600000000000001       ,   -2.6774784143981276       ,   -3.0112014655701351     
   1.3800000000000001       ,   -2.7417975803500592       ,   -3.0641287359626528     
   1.4000000000000001       ,   -2.8139682245956630       ,   -3.1248766020154779     
   1.4200000000000002       ,   -2.8904523717976520       ,   -3.1911337855071213     
   1.4399999999999999       ,   -2.9674209234696196       ,   -3.2602944403865339     
   1.4600000000000000       ,   -3.0408960164258092       ,   -3.3295447799086824     
   1.4800000000000000       ,   -3.1068984653882170       ,   -3.3959560954966936     
   1.5000000000000000       ,   -3.1615945860895089       ,   -3.4565807193752356     
   1.5200000000000000       ,   -3.2014367963401762       ,   -3.5085474607347216     
   1.5400000000000000       ,   -3.2232927119660202       ,   -3.5491531550640425     
   1.5600000000000001       ,   -3.2245579762089078       ,   -3.5759472003234509     
   1.5800000000000001       ,   -3.2032487612254159       ,   -3.5868062990973488     
   1.6000000000000001       ,   -3.1580707280757685       ,   -3.5799970659700961     
   1.6200000000000001       ,   -3.0884621910107590       ,   -3.5542246740187777     
   1.6400000000000001       ,   -2.9946102629993328       ,   -3.5086662810419726     
   1.6600000000000001       ,   -2.8774398201499882       ,   -3.4429885710678105     
   1.6800000000000002       ,   -2.7385761703423972       ,   -3.3573493455447312     
   1.7000000000000000       ,   -2.5802833046418074       ,   -3.2523836777694815     
   1.7200000000000000       ,   -2.4053805104589800       ,   -3.1291756814731269     
   1.7400000000000000       ,   -2.2171408989061834       ,   -2.9892174204306654     
   1.7600000000000000       ,   -2.0191760170671995       ,   -2.8343568840164282     
   1.7800000000000000       ,   -1.8153111574032170       ,   -2.6667372610922544     
   1.8000000000000000       ,   -1.6094562272453041       ,   -2.4887299529550422     
   1.8200000000000001       ,   -1.4054770952356912       ,   -2.3028638711456644     
   1.8400000000000001       ,   -1.2070721907065043       ,   -2.1117535680206032     
   1.8600000000000001       ,   -1.0176588062041116       ,   -1.9180286516643723     
   1.8800000000000001       ,  -0.84027305985654055       ,   -1.7242667504580540     
   1.9000000000000001       ,  -0.67748683667903253       ,   -1.5329320283321779     
   1.9200000000000002       ,  -0.53134427522733774       ,   -1.3463209241368008     
   1.9399999999999999       ,  -0.40331953132644299       ,   -1.1665164144406681     
   1.9600000000000000       ,  -0.29429666964880008       ,  -0.99535169646983446     
   1.9800000000000000       ,  -0.20457164352862864       ,  -0.83438377528680552     
   2.0000000000000000       ,  -0.13387545998608136       ,  -0.68487703476514539     
   2.0200000000000000       ,   -8.1416824975842086E-002  ,  -0.54779649231100636     
   2.0400000000000000       ,   -4.5941854527683110E-002  ,  -0.42381009760250204     
   2.0600000000000001       ,   -2.5807847319398634E-002  ,  -0.31329914833345923     
   2.0800000000000001       ,   -1.9067664356901919E-002  ,  -0.21637567055341933     
   2.1000000000000001       ,   -2.3560966541802068E-002  ,  -0.13290545388119104     
   2.1200000000000001       ,   -3.7008428875075286E-002  ,   -6.2535345356478464E-002
   2.1400000000000001       ,   -5.7105081761086661E-002  ,   -4.7233892395911175E-003
   2.1600000000000001       ,   -8.1609119325491614E-002  ,    4.1229550375454713E-002
   2.1800000000000002       ,  -0.10842284932943526       ,    7.6147938743311966E-002
   2.2000000000000002       ,  -0.13566292080621961       ,   0.10095058814302922     
   2.2200000000000002       ,  -0.16171753068869185       ,   0.11662144502631064     
   2.2400000000000002       ,  -0.18528895232884282       ,   0.12418282702221232     
   2.2600000000000002       ,  -0.20542041723389809       ,   0.12467155831193423     
   2.2800000000000002       ,  -0.22150708559225959       ,   0.11911822230748417     
   2.3000000000000003       ,  -0.23329153037015404       ,   0.10852953612456896     
   2.3200000000000003       ,  -0.24084480448729134       ,    9.3873663518781750E-002
   2.3399999999999999       ,  -0.24453473406279205       ,    7.6068131325252392E-002
   2.3599999999999999       ,  -0.24498355998178561       ,    5.5969906202561683E-002
   2.3799999999999999       ,  -0.24301741679837119       ,    3.4367128130713208E-002
   2.3999999999999999       ,  -0.23961037940917679       ,    1.1971986257811878E-002
   2.4199999999999999       ,  -0.23582591702261840       ,   -1.0585739990265337E-002
   2.4399999999999999       ,  -0.23275856979885928       ,   -3.2764870274626365E-002
   2.4600000000000000       ,  -0.23147851122074287       ,   -5.4119020261538926E-002
   2.4800000000000000       ,  -0.23298138950597305       ,   -7.4302936117912166E-002
   2.5000000000000000       ,  -0.23814546998422140       ,   -9.3078931773181467E-002
   2.5200000000000000       ,  -0.24769764741169031       ,  -0.11032322326618488     
   2.5400000000000000       ,  -0.26218938604834152       ,  -0.12603178982543795     
   2.5600000000000001       ,  -0.28198310153756789       ,  -0.14032524492553450     
   2.5800000000000001       ,  -0.30724894876034492       ,  -0.15345208365603089     
   2.6000000000000001       ,  -0.33797145022106528       ,  -0.16578959511645058     
   2.6200000000000001       ,  -0.37396491507830043       ,  -0.17784169799075475     
   2.6400000000000001       ,  -0.41489618204647893       ,  -0.19023297927242275     
   2.6600000000000001       ,  -0.46031288892405586       ,  -0.20369829281681248     
   2.6800000000000002       ,  -0.50967524196545810       ,  -0.21906740549108578     
   2.7000000000000002       ,  -0.56238913925661693       ,  -0.23724436060324422     
   2.7200000000000002       ,  -0.61783849787498146       ,  -0.25918145447669227     
   2.7400000000000002       ,  -0.67541474361346732       ,  -0.28584798321675547     
   2.7600000000000002       ,  -0.73454163773401560       ,  -0.31819420126316811     
   2.7800000000000002       ,  -0.79469392585789311       ,  -0.35711122776631682     
   2.8000000000000003       ,  -0.85540868349954380       ,  -0.40338792645892424     
   2.8200000000000003       ,  -0.91628868101968219       ,  -0.45766605426149309     
   2.8399999999999999       ,  -0.97699757527024611       ,  -0.52039520827880581     
   2.8599999999999999       ,   -1.0372472315930272       ,  -0.59178928595065849     
   2.8799999999999999       ,   -1.0967779632195833       ,  -0.67178629637942300     
   2.8999999999999999       ,   -1.1553329211984931       ,  -0.76001341202604533     
   2.9199999999999999       ,   -1.2126282541650104       ,  -0.85575912166246548     
   2.9399999999999999       ,   -1.2683209637498880       ,  -0.95795423362459564     
   2.9600000000000000       ,   -1.3219765920695998       ,   -1.0651632825899471     
   2.9800000000000000       ,   -1.3730389808620038       ,   -1.1755876166586305     
   3.0000000000000000       ,   -1.4208043307388991       ,   -1.2870810915789439     
   3.0200000000000000       ,   -1.4644016623578908       ,   -1.3971788862603265     
   3.0400000000000000       ,   -1.5027815431249083       ,   -1.5031394922455172     
   3.0600000000000001       ,   -1.5347146026502170       ,   -1.6019994363128924     
   3.0800000000000001       ,   -1.5588009317940521       ,   -1.6906397887125444     
   3.1000000000000001       ,   -1.5734909622256354       ,   -1.7658630099432535     
   3.1200000000000001       ,   -1.5771178779193986       ,   -1.8244782172383702     
   3.1400000000000001       ,   -1.5679410413726182       ,   -1.8633925285094286     
   3.1600000000000001       ,   -1.5441993514276546       ,   -1.8797057856553969     
   3.1800000000000002       ,   -1.5041729125839030       ,   -1.8708056880860473     
   3.2000000000000002       ,   -1.4462509128729824       ,   -1.8344601953894231     
   3.2200000000000002       ,   -1.3690032020158753       ,   -1.7689039961302935     
   3.2400000000000002       ,   -1.2712527538855374       ,   -1.6729158945534790     
   3.2600000000000002       ,   -1.1521460034740936       ,   -1.5458841407632626     
   3.2800000000000002       ,   -1.0112179800727144       ,   -1.3878570203513083     
   3.3000000000000003       ,  -0.84844922137180612       ,   -1.1995764193260849     
   3.3200000000000003       ,  -0.66431164820513589       ,  -0.98249257788882982     
   3.3400000000000003       ,  -0.45980090149924691       ,  -0.73875882625092215     
   3.3599999999999999       ,  -0.23645308089554584       ,  -0.47120573779612562     
   3.3799999999999999       ,    3.6556374253721596E-003  ,  -0.18329481701626574     
   3.3999999999999999       ,   0.25792740841393014       ,   0.12094746276297708     
   3.4199999999999999       ,   0.52327938268130147       ,   0.43701376952707188     
   3.4399999999999999       ,   0.79619815723562049       ,   0.76001601709592104     
   3.4600000000000000       ,    1.0728108395470819       ,    1.0847987206048821     
   3.4800000000000000       ,    1.3489708785319214       ,    1.4060623540218145     
   3.5000000000000000       ,    1.6203561993087230       ,    1.7184930601043968     
   3.5200000000000000       ,    1.8825766447609940       ,    2.0168947841054172     
   3.5400000000000000       ,    2.1312872990631679       ,    2.2963197574007403     
   3.5600000000000001       ,    2.3623039653349767       ,    2.5521932535169611     
   3.5800000000000001       ,    2.5717169055167717       ,    2.7804286789711576     
   3.6000000000000001       ,    2.7559989339114486       ,    2.9775293416728861     
   3.6200000000000001       ,    2.9121040892005672       ,    3.1406736517782137     
   3.6400000000000001       ,    3.0375533896238225       ,    3.2677810401324199     
   3.6600000000000001       ,    3.1305045929546806       ,    3.3575565094805735     
   3.6800000000000002       ,    3.1898034218362694       ,    3.4095124412017155     
   3.7000000000000002       ,    3.2150143558558160       ,    3.4239670400497331     
   3.7200000000000002       ,    3.2064298100957873       ,    3.4020195837171849     
   3.7400000000000002       ,    3.1650572882091512       ,    3.3455034243200208     
   3.7600000000000002       ,    3.0925848865840555       ,    3.2569184364661656     
   3.7800000000000002       ,    2.9913263042071279       ,    3.1393452938584958     
   3.8000000000000003       ,    2.8641472500259124       ,    2.9963445580014154     
   3.8200000000000003       ,    2.7143758071117920       ,    2.8318440563133396     
   3.8400000000000003       ,    2.5456998846094288       ,    2.6500183946125140     
   3.8599999999999999       ,    2.3620553419815287       ,    2.4551646771173510     
   3.8799999999999999       ,    2.1675086877582448       ,    2.2515785876498220     
   3.8999999999999999       ,    1.9661384246255633       ,    2.0434349161277310     
   3.9199999999999999       ,    1.7619191278833299       ,    1.8346763978713931     
   3.9399999999999999       ,    1.5586122048746081       ,    1.6289143785210587     
   3.9600000000000000       ,    1.3596669948947206       ,    1.4293443385032594     
   3.9800000000000000       ,    1.1681354441973946       ,    1.2386787267396162     
   4.0000000000000000       ,   0.98660304631144069       ,    1.0590988863703445     
   4.0199999999999996       ,   0.81713809594912667       ,   0.89222713144966981     
   4.0400000000000000       ,   0.66126059111293878       ,   0.73911928070507160     
   4.0599999999999996       ,   0.51993136111836280       ,   0.60027720134682305     
   4.0800000000000001       ,   0.39356122825018680       ,   0.47568019121310295     
   4.0999999999999996       ,   0.28203925811342118       ,   0.36483335859877103     
   4.1199999999999992       ,   0.18477844799156656       ,   0.26683057094425999     
   4.1399999999999997       ,   0.10077657116898135       ,   0.18042905783310800     
   4.1599999999999993       ,    2.8689362502285161E-002  ,   0.10413238797272288     
   4.1799999999999997       ,   -3.3087183326286275E-002  ,    3.6278306693969975E-002
   4.1999999999999993       ,   -8.6328909292794298E-002  ,   -2.4872172624583719E-002
   4.2199999999999998       ,  -0.13289363388475214       ,   -8.1047981113253342E-002
   4.2399999999999993       ,  -0.17463296278695786       ,  -0.13388688213735978     
   4.2599999999999998       ,  -0.21330925158229008       ,  -0.18486308984138178     
   4.2799999999999994       ,  -0.25052090339836236       ,  -0.23522624400758541     
   4.2999999999999998       ,  -0.28763876884927547       ,  -0.28595384058010681     
   4.3199999999999994       ,  -0.32575589424571272       ,  -0.33771861731301123     
   4.3399999999999999       ,  -0.36565226050864386       ,  -0.39087174531918389     
   4.3599999999999994       ,  -0.40777549528724066       ,  -0.44544200647185361     
   4.3799999999999999       ,  -0.45223785226192259       ,  -0.50115047089274944     
   4.3999999999999995       ,  -0.49882906320259579       ,  -0.55743955490369257     
   4.4199999999999999       ,  -0.54704400843391077       ,  -0.61351476300296914     
   4.4399999999999995       ,  -0.59612354683572044       ,  -0.66839692025945441     
   4.4600000000000000       ,  -0.64510632169814264       ,  -0.72098230313281153     
   4.4799999999999995       ,  -0.69288893440672283       ,  -0.77010779204801061     
   4.5000000000000000       ,  -0.73829157040731519       ,  -0.81461800821472297     
   4.5199999999999996       ,  -0.78012598250364618       ,  -0.85343136516789386     
   4.5400000000000000       ,  -0.81726269112071692       ,  -0.88560206198487756     
   4.5599999999999996       ,  -0.84869434990960979       ,  -0.91037526452188688     
   4.5800000000000001       ,  -0.87359244254409041       ,  -0.92723305274745105     
