r(A) ,   X_ray-calc  ,   X_ray_exp_renorm
   2.0000000000000000E-002  ,   0.16047586820824924       ,   -1.6889217670099126     
   4.0000000000000001E-002  ,    8.7135104057547957E-002  ,   -1.7598252737076445     
   5.9999999999999998E-002  ,   -3.2852793620703015E-002  ,   -1.8757434484994411     
   8.0000000000000002E-002  ,  -0.19619437186071562       ,   -2.0333740554804636     
  0.10000000000000001       ,  -0.39842925902215154       ,   -2.2282495726564191     
  0.12000000000000001       ,  -0.63407429169457030       ,   -2.4548860772447543     
  0.13999999999999999       ,  -0.89680003003074960       ,   -2.7069653476051156     
  0.16000000000000000       ,   -1.1796335132120139       ,   -2.9775436724357083     
  0.17999999999999999       ,   -1.4751802138251293       ,   -3.2592799241159911     
  0.19999999999999998       ,   -1.7758575128844629       ,   -3.5446747958874814     
  0.22000000000000000       ,   -2.0741316584872695       ,   -3.8263127456231967     
  0.23999999999999999       ,   -2.3627501026702942       ,   -4.0970981444935450     
  0.26000000000000001       ,   -2.6349613341620262       ,   -4.3504773972598203     
  0.28000000000000003       ,   -2.8847148297734213       ,   -4.5806393707346951     
  0.30000000000000004       ,   -3.1068345141110818       ,   -4.7826873152873217     
  0.32000000000000001       ,   -3.2971601164541480       ,   -4.9527765578304779     
  0.34000000000000002       ,   -3.4526520068708870       ,   -5.0882135410651346     
  0.36000000000000004       ,   -3.5714564358258118       ,   -5.1875132329735534     
  0.38000000000000000       ,   -3.6529295422396628       ,   -5.2504134772219349     
  0.40000000000000002       ,   -3.6976199804840464       ,   -5.2778464404873153     
  0.42000000000000004       ,   -3.7072114920901793       ,   -5.2718688769009079     
  0.44000000000000000       ,   -3.6844281587958809       ,   -5.2355544141670460     
  0.46000000000000002       ,   -3.6329063685442531       ,   -5.1728524153078155     
  0.48000000000000004       ,   -3.5570386585273694       ,   -5.0884191347958883     
  0.50000000000000000       ,   -3.4617955291656797       ,   -4.9874278259051881     
  0.52000000000000002       ,   -3.3525320177974205       ,   -4.8753651342656008     
  0.54000000000000004       ,   -3.2347862576920035       ,   -4.7578215078980639     
  0.56000000000000005       ,   -3.1140774135631393       ,   -4.6402834544872293     
  0.58000000000000007       ,   -2.9957102761232055       ,   -4.5279352817580580     
  0.59999999999999998       ,   -2.8845934227994721       ,   -4.4254774773033496     
  0.62000000000000000       ,   -2.7850772268878381       ,   -4.3369681415920054     
  0.64000000000000001       ,   -2.7008171497124431       ,   -4.2656929135607804     
  0.66000000000000003       ,   -2.6346667144445806       ,   -4.2140676620935906     
  0.68000000000000005       ,   -2.5886033774670154       ,   -4.1835769056802601     
  0.70000000000000007       ,   -2.5636892299501861       ,   -4.1747495185139405     
  0.72000000000000008       ,   -2.5600671282710814       ,   -4.1871718391035779     
  0.73999999999999999       ,   -2.5769915179836285       ,   -4.2195368728240386     
  0.76000000000000001       ,   -2.6128919325177744       ,   -4.2697269270332772     
  0.78000000000000003       ,   -2.6654659623456163       ,   -4.3349257873301150     
  0.80000000000000004       ,   -2.7317974463459160       ,   -4.4117554817034224     
  0.82000000000000006       ,   -2.8084947718918523       ,   -4.4964318241395258     
  0.84000000000000008       ,   -2.8918435138194387       ,   -4.5849323106127509     
  0.85999999999999999       ,   -2.9779672165595010       ,   -4.6731695786367720     
  0.88000000000000000       ,   -3.0629899408737464       ,   -4.7571635468172779     
  0.90000000000000002       ,   -3.1431942598933307       ,   -4.8332055227516779     
  0.92000000000000004       ,   -3.2151686921170390       ,   -4.8980079954569531     
  0.94000000000000006       ,   -3.2759390861959394       ,   -4.9488344917826108     
  0.96000000000000008       ,   -3.3230791998521338       ,   -4.9836047456495436     
  0.97999999999999998       ,   -3.3547966119582626       ,   -5.0009714675379833     
   1.0000000000000000       ,   -3.3699911354245145       ,   -5.0003661665014212     
   1.0200000000000000       ,   -3.3682840173846369       ,   -4.9820127209347760     
   1.0400000000000000       ,   -3.3500173777015951       ,   -4.9469086678529441     
   1.0600000000000001       ,   -3.3162245014353533       ,   -4.8967754336731675     
   1.0800000000000001       ,   -3.2685727207614521       ,   -4.8339799141666289     
   1.1000000000000001       ,   -3.2092816544891707       ,   -4.7614308825589715     
   1.1200000000000001       ,   -3.1410204804551900       ,   -4.6824546231043049     
   1.1400000000000001       ,   -3.0667886648053568       ,   -4.6006549198742741     
   1.1600000000000001       ,   -2.9897851363494770       ,   -4.5197630518778986     
   1.1799999999999999       ,   -2.9132712551985387       ,   -4.4434837395472195     
   1.2000000000000000       ,   -2.8404330723839410       ,   -4.3753430468643195     
   1.2200000000000000       ,   -2.7742483091907153       ,   -4.3185440700744113     
   1.2400000000000000       ,   -2.7173632079912369       ,   -4.2758358491914752     
   1.2600000000000000       ,   -2.6719839349251662       ,   -4.2494003419935806     
   1.2800000000000000       ,   -2.6397865706294747       ,   -4.2407615290803262     
   1.3000000000000000       ,   -2.6218489364968778       ,   -4.2507198062917535     
   1.3200000000000001       ,   -2.6186066038732907       ,   -4.2793138056919986     
   1.3400000000000001       ,   -2.6298344591621658       ,   -4.3258107099658467     
   1.3600000000000001       ,   -2.6546541881691699       ,   -4.3887250305548884     
   1.3800000000000001       ,   -2.6915670380154606       ,   -4.4658647500411126     
   1.4000000000000001       ,   -2.7385102534612522       ,   -4.5544027251142447     
   1.4200000000000002       ,   -2.7929347029554945       ,   -4.6509703453710278     
   1.4399999999999999       ,   -2.8519004407815167       ,   -4.7517696776871654     
   1.4600000000000000       ,   -2.9121863228796863       ,   -4.8526997223587971     
   1.4800000000000000       ,   -2.9704093268534724       ,   -4.9494919849708241     
   1.5000000000000000       ,   -3.0231489361041151       ,   -5.0378503387129765     
   1.5200000000000000       ,   -3.0670718415891915       ,   -5.1135901193847308     
   1.5400000000000000       ,   -3.0990522926033184       ,   -5.1727715554738678     
   1.5600000000000001       ,   -3.1162836832550180       ,   -5.2118229767900166     
   1.5800000000000001       ,   -3.1163773802001384       ,   -5.2276497486427767     
   1.6000000000000001       ,   -3.0974453598126495       ,   -5.2177255199898127     
   1.6200000000000001       ,   -3.0581639042741839       ,   -5.1801631240666932     
   1.6400000000000001       ,   -2.9978163768992228       ,   -5.1137632959929835     
   1.6600000000000001       ,   -2.9163139254066484       ,   -5.0180402389312553     
   1.6800000000000002       ,   -2.8141938143121483       ,   -4.8932239431941937     
   1.7000000000000000       ,   -2.6925959305240923       ,   -4.7402400067882899     
   1.7200000000000000       ,   -2.5532188071429012       ,   -4.5606684890758595     
   1.7400000000000000       ,   -2.3982572394209996       ,   -4.3566840229107280     
   1.7600000000000000       ,   -2.2303241974553090       ,   -4.1309799907570248     
   1.7800000000000000       ,   -2.0523602506363265       ,   -3.8866800184201651     
   1.8000000000000000       ,   -1.8675340926611343       ,   -3.6272403436670970     
   1.8200000000000001       ,   -1.6791379823663761       ,   -3.3563467701567196     
   1.8400000000000001       ,   -1.4904819902062669       ,   -3.0778099201611697     
   1.8600000000000001       ,   -1.3047908644809394       ,   -2.7954623591706711     
   1.8800000000000001       ,   -1.1251071129188310       ,   -2.5130608940029910     
   1.9000000000000001       ,  -0.95420354688561215       ,   -2.2341969608489514     
   1.9200000000000002       ,  -0.79450807506196852       ,   -1.9622175422262012     
   1.9399999999999999       ,  -0.64804298255536730       ,   -1.7001585065446889     
   1.9600000000000000       ,  -0.51638031467557632       ,   -1.4506916772090981     
   1.9800000000000000       ,  -0.40061432844519806       ,   -1.2160863368192985     
   2.0000000000000000       ,  -0.30135130649059438       ,  -0.99818528241746296     
   2.0200000000000000       ,  -0.21871637400535304       ,  -0.79839499447118145     
   2.0400000000000000       ,  -0.15237634524422713       ,  -0.61768898720891285     
   2.0600000000000001       ,  -0.10157707424887016       ,  -0.45662298921677907     
   2.0800000000000001       ,   -6.5193314642157343E-002  ,  -0.31536027470054767     
   2.1000000000000001       ,   -4.1788720729008993E-002  ,  -0.19370523653594304     
   2.1200000000000001       ,   -2.9683357636377507E-002  ,   -9.1143166140963447E-002
   2.1400000000000001       ,   -2.7025937797784248E-002  ,   -6.8841812219702283E-003
   2.1600000000000001       ,   -3.1867965789350194E-002  ,    6.0090685329492549E-002
   2.1800000000000002       ,   -4.2237049603414185E-002  ,   0.11098306393944923     
   2.2000000000000002       ,   -5.6206815669648212E-002  ,   0.14713209265414084     
   2.2200000000000002       ,   -7.1961135101383147E-002  ,   0.16997184038947835     
   2.2400000000000002       ,   -8.7850714246246728E-002  ,   0.18099230076399458     
   2.2600000000000002       ,  -0.10244050562564198       ,   0.18170461020889311     
   2.2800000000000002       ,  -0.11454683607477457       ,   0.17361080944382304     
   2.3000000000000003       ,  -0.12326360692843179       ,   0.15817815486292075     
   2.3200000000000003       ,  -0.12797737620550440       ,   0.13681771263244258     
   2.3399999999999999       ,  -0.12837156576377109       ,   0.11086674730727872     
   2.3599999999999999       ,  -0.12442043003791710       ,    8.1574259018395961E-002
   2.3799999999999999       ,  -0.11637376252501160       ,    5.0088935323691672E-002
   2.3999999999999999       ,  -0.10473359006865569       ,    1.7448767993731691E-002
   2.4199999999999999       ,   -9.0224305182141570E-002  ,   -1.5428360604037860E-002
   2.4399999999999999       ,   -7.3757808882073492E-002  ,   -4.7753698296606820E-002
   2.4600000000000000       ,   -5.6395280340053505E-002  ,   -7.8876654905570276E-002
   2.4800000000000000       ,   -3.9307158363599937E-002  ,  -0.10829403456160305     
   2.5000000000000000       ,   -2.3732819954980194E-002  ,  -0.13565941779751622     
   2.5200000000000000       ,   -1.0941282598024189E-002  ,  -0.16079239364614467     
   2.5400000000000000       ,   -2.1940515091437782E-003  ,  -0.18368710196805310     
   2.5600000000000001       ,    1.2890053927554182E-003  ,  -0.20451933285268736     
   2.5800000000000001       ,   -1.6398711477355280E-003  ,  -0.22365125954948814     
   2.6000000000000001       ,   -1.2029879802505637E-002  ,  -0.24163276825297497     
   2.6200000000000001       ,   -3.0809342902568988E-002  ,  -0.25919830352521106     
   2.6400000000000001       ,   -5.8767418814807515E-002  ,  -0.27725817993776652     
   2.6600000000000001       ,   -9.6539545350385669E-002  ,  -0.29688342231102766     
   2.6800000000000002       ,  -0.14459617265453625       ,  -0.31928338799324102     
   2.7000000000000002       ,  -0.20323425035230253       ,  -0.34577568975123651     
   2.7200000000000002       ,  -0.27257089390998679       ,  -0.37774826750162793     
   2.7400000000000002       ,  -0.35253866913623366       ,  -0.41661383777238636     
   2.7600000000000002       ,  -0.44288199830105213       ,  -0.46375736450323529     
   2.7800000000000002       ,  -0.54315430040688739       ,  -0.52047762393522867     
   2.8000000000000003       ,  -0.65271562307181719       ,  -0.58792435847155078     
   2.8200000000000003       ,  -0.77073069358401969       ,  -0.66703290727590270     
   2.8399999999999999       ,  -0.89616749978073063       ,  -0.75845854303262161     
   2.8599999999999999       ,   -1.0277966944856769       ,  -0.86251301407828918     
   2.8799999999999999       ,   -1.1641922871668584       ,  -0.97910597076104822     
   2.8999999999999999       ,   -1.3037342306809476       ,   -1.1076940294609596     
   2.9199999999999999       ,   -1.4446136181286271       ,   -1.2472401864531613     
   2.9399999999999999       ,   -1.5848412654989033       ,   -1.3961861307869259     
   2.9600000000000000       ,   -1.7222604628655733       ,   -1.5524397199525839     
   2.9800000000000000       ,   -1.8545646261602386       ,   -1.7133794791984263     
   3.0000000000000000       ,   -1.9793204718151249       ,   -1.8758774753375445     
   3.0200000000000000       ,   -2.0939971698957498       ,   -2.0363413143904356     
   3.0400000000000000       ,   -2.1960017129687581       ,   -2.1907753398308167     
   3.0600000000000001       ,   -2.2827204761232327       ,   -2.3348603889411383     
   3.0800000000000001       ,   -2.3515666492077214       ,   -2.4640507263335598     
   3.1000000000000001       ,   -2.4000329085917373       ,   -2.5736860455471393     
   3.1200000000000001       ,   -2.4257483773624879       ,   -2.6591157420880633     
   3.1400000000000001       ,   -2.4265386155325728       ,   -2.7158320441604529     
   3.1600000000000001       ,   -2.4004871014867293       ,   -2.7396080687091238     
   3.1800000000000002       ,   -2.3459964279272714       ,   -2.7266364753356496     
   3.2000000000000002       ,   -2.2618472540923626       ,   -2.6736641400836398     
   3.2200000000000002       ,   -2.1472529431380920       ,   -2.5781181808091707     
   3.2400000000000002       ,   -2.0019077787931066       ,   -2.4382187457025100     
   3.2600000000000002       ,   -1.8260267050759140       ,   -2.2530742298310518     
   3.2800000000000002       ,   -1.6203746698420241       ,   -2.0227550078233865     
   3.3000000000000003       ,   -1.3862838762624450       ,   -1.7483423536269447     
   3.3200000000000003       ,   -1.1256575512461537       ,   -1.4319499436410841     
   3.3400000000000003       ,  -0.84095921777351912       ,   -1.0767161843476645     
   3.3599999999999999       ,  -0.53518689708718092       ,  -0.68676654141286098     
   3.3799999999999999       ,  -0.21183215160869220       ,  -0.26714604140840975     
   3.3999999999999999       ,   0.12517560726554144       ,   0.17627686598826794     
   3.4199999999999999       ,   0.47153860007619830       ,   0.63693289570628830     
   3.4399999999999999       ,   0.82267249169111833       ,    1.1076978262628345     
   3.4600000000000000       ,    1.1737985991753108       ,    1.5810577115706699     
   3.4800000000000000       ,    1.5200441323502458       ,    2.0492886703773219     
   3.5000000000000000       ,    1.8565477478325076       ,    2.5046459341726726     
   3.5200000000000000       ,    2.1785674273583702       ,    2.9395564276278332     
   3.5400000000000000       ,    2.4815875206606277       ,    3.3468089441017268     
   3.5600000000000001       ,    2.7614217314165699       ,    3.7197359733625301     
   3.5800000000000001       ,    3.0143088770624877       ,    4.0523814426222646     
   3.6000000000000001       ,    3.2369984203870366       ,    4.3396490405656820     
   3.6200000000000001       ,    3.4268230490614782       ,    4.5774263947342755     
   3.6400000000000001       ,    3.5817559604659857       ,    4.7626811454432083     
   3.6600000000000001       ,    3.7004509809551571       ,    4.8935258776748505     
   3.6800000000000002       ,    3.7822641949264426       ,    4.9692499036616686     
   3.7000000000000002       ,    3.8272563603968202       ,    4.9903169961482599     
   3.7200000000000002       ,    3.8361760224923316       ,    4.9583293154616648     
   3.7400000000000002       ,    3.8104238809532927       ,    4.8759589107533889     
   3.7600000000000002       ,    3.7519995984066852       ,    4.7468492653275209     
   3.7800000000000002       ,    3.6634328289809459       ,    4.5754903576678565     
   3.8000000000000003       ,    3.5477007792796424       ,    4.3670715866159799     
   3.8200000000000003       ,    3.4081350653665066       ,    4.1273176287516549     
   3.8400000000000003       ,    3.2483209827853003       ,    3.8623128318864510     
   3.8599999999999999       ,    3.0719925479694603       ,    3.5783200811371154     
   3.8799999999999999       ,    2.8829267891701074       ,    3.2816001914402761     
   3.8999999999999999       ,    2.6848407583963039       ,    2.9782377789264269     
   3.9199999999999999       ,    2.4812946028479845       ,    2.6739792479417952     
   3.9399999999999999       ,    2.2756037798725552       ,    2.3740880135008098     
   3.9600000000000000       ,    2.0707631332629015       ,    2.0832213810321902     
   3.9800000000000000       ,    1.8693850847803710       ,    1.8053326537647418     
   4.0000000000000000       ,    1.6736536509939948       ,    1.5436010660835264     
   4.0199999999999996       ,    1.4852953928657446       ,    1.3003910862510002     
   4.0400000000000000       ,    1.3055677672599577       ,    1.0772415346117994     
   4.0599999999999996       ,    1.1352647003662388       ,   0.87488386577396826     
   4.0800000000000001       ,   0.97473856794099123       ,   0.69328790703175758     
   4.0999999999999996       ,   0.82393717072839179       ,   0.53173237034164189     
   4.1199999999999992       ,   0.68245375827041266       ,   0.38889659792278358     
   4.1399999999999997       ,   0.54958770092057352       ,   0.26296929362103261     
   4.1599999999999993       ,   0.42441305529436324       ,   0.15176945907231504     
   4.1799999999999997       ,   0.30585202570263059       ,    5.2874413909010043E-002
   4.1999999999999993       ,   0.19275020190687780       ,   -3.6250356480590058E-002
   4.2199999999999998       ,    8.3950455564249238E-002  ,  -0.11812471116751655     
   4.2399999999999993       ,   -2.1637497210536864E-002  ,  -0.19513563526641325     
   4.2599999999999998       ,  -0.12497461775862659       ,  -0.26943174639395201     
   4.2799999999999994       ,  -0.22683955369951689       ,  -0.34283435257429379     
   4.2999999999999998       ,  -0.32778709769252518       ,  -0.41676812132515439     
   4.3199999999999994       ,  -0.42811954701485450       ,  -0.49221354533492545     
   4.3399999999999999       ,  -0.52787185123625857       ,  -0.56968244470955109     
   4.3599999999999994       ,  -0.62681084345676719       ,  -0.64921676806286854     
   4.3799999999999999       ,  -0.72444825475457453       ,  -0.73040998446277849     
   4.3999999999999995       ,  -0.82006663586494544       ,  -0.81244943442002659     
   4.4199999999999999       ,  -0.91275677788635579       ,  -0.89417716741721853     
   4.4399999999999995       ,   -1.0014647562623904       ,  -0.97416606886947721     
   4.4600000000000000       ,   -1.0850463379072788       ,   -1.0508074987759011     
   4.4799999999999995       ,   -1.1623262050906451       ,   -1.1224062494093332     
   4.5000000000000000       ,   -1.2321592724204877       ,   -1.1872783949764094     
   4.5199999999999996       ,   -1.2934913112698914       ,   -1.2438475595201677     
   4.5400000000000000       ,   -1.3454161508257951       ,   -1.2907352699525072     
   4.5599999999999996       ,   -1.3872268933340055       ,   -1.3268413808535238     
   4.5800000000000001       ,   -1.4184588551744957       ,   -1.3514110411672744     
