r(A) ,   X_ray-calc  ,   X_ray_exp_renorm
   2.0000000000000000E-002  ,  -0.49719551675327656       ,   -2.4340518776305164     
   4.0000000000000001E-002  ,  -0.56808541838099025       ,   -2.4602802297151189     
   5.9999999999999998E-002  ,  -0.68371807675579044       ,   -2.5030701293428361     
   8.0000000000000002E-002  ,  -0.84041368067046174       ,   -2.5610705160394569     
  0.10000000000000001       ,   -1.0332086373630498       ,   -2.6324584808773830     
  0.12000000000000001       ,   -1.2560350742813042       ,   -2.7150047117358849     
  0.13999999999999999       ,   -1.5019396624144630       ,   -2.8061533022546441     
  0.16000000000000000       ,   -1.7633334361486621       ,   -2.9031129073896671     
  0.17999999999999999       ,   -2.0322631231282329       ,   -3.0029558066047830     
  0.19999999999999998       ,   -2.3006937060038859       ,   -3.1027211473844423     
  0.22000000000000000       ,   -2.5607915465341282       ,   -3.1995184978743887     
  0.23999999999999999       ,   -2.8051974257705665       ,   -3.2906278432739025     
  0.26000000000000001       ,   -3.0272792901295453       ,   -3.3735923154536884     
  0.28000000000000003       ,   -3.2213553238810020       ,   -3.4463002426174123     
  0.30000000000000004       ,   -3.3828791603011736       ,   -3.5070535335493451     
  0.32000000000000001       ,   -3.5085805485988981       ,   -3.5546199518827808     
  0.34000000000000002       ,   -3.5965565516668732       ,   -3.5882674682803835     
  0.36000000000000004       ,   -3.6463102908231599       ,   -3.6077795773210255     
  0.38000000000000000       ,   -3.6587363010677594       ,   -3.6134512036005151     
  0.40000000000000002       ,   -3.6360536330881335       ,   -3.6060655690444965     
  0.42000000000000004       ,   -3.5816898546793969       ,   -3.5868531214193844     
  0.44000000000000000       ,   -3.5001209852798532       ,   -3.5574343041491203     
  0.46000000000000002       ,   -3.3966740694827084       ,   -3.5197485534812354     
  0.48000000000000004       ,   -3.2773004937468357       ,   -3.4759724175492481     
  0.50000000000000000       ,   -3.1483292212709806       ,   -3.4284300836858383     
  0.52000000000000002       ,   -3.0162098225067133       ,   -3.3794998609145352     
  0.54000000000000004       ,   -2.8872554872369678       ,   -3.3315202846239043     
  0.56000000000000005       ,   -2.7673961084695784       ,   -3.2866994863566275     
  0.58000000000000007       ,   -2.6619510346229651       ,   -3.2470313054942261     
  0.59999999999999998       ,   -2.5754302164505307       ,   -3.2142213190577462     
  0.62000000000000000       ,   -2.5113712655699509       ,   -3.1896255437975674     
  0.64000000000000001       ,   -2.4722184423913269       ,   -3.1742040388456996     
  0.66000000000000003       ,   -2.4592478640290829       ,   -3.1684910290423058     
  0.68000000000000005       ,   -2.4725413375919461       ,   -3.1725825033028445     
  0.70000000000000007       ,   -2.5110092571903997       ,   -3.1861415458020468     
  0.72000000000000008       ,   -2.5724610330894446       ,   -3.2084209580461369     
  0.73999999999999999       ,   -2.6537196273955534       ,   -3.2383020546882735     
  0.76000000000000001       ,   -2.7507750277966951       ,   -3.2743478915885111     
  0.78000000000000003       ,   -2.8589699680411433       ,   -3.3148686352399750     
  0.80000000000000004       ,   -2.9732099607506544       ,   -3.3579963291793837     
  0.82000000000000006       ,   -3.0881887930092997       ,   -3.4017659722636040     
  0.84000000000000008       ,   -3.1986200827490552       ,   -3.4441996079728061     
  0.85999999999999999       ,   -3.2994653243374503       ,   -3.4833900403540552     
  0.88000000000000000       ,   -3.3861490695608256       ,   -3.5175808426887500     
  0.90000000000000002       ,   -3.4547524844081998       ,   -3.5452395059569013     
  0.92000000000000004       ,   -3.5021774666422454       ,   -3.5651208770486176     
  0.94000000000000006       ,   -3.5262747640885999       ,   -3.5763184480719743     
  0.96000000000000008       ,   -3.5259310465935401       ,   -3.5783015605154151     
  0.97999999999999998       ,   -3.5011115932763963       ,   -3.5709371605348075     
   1.0000000000000000       ,   -3.4528570910571643       ,   -3.5544953608300274     
   1.0200000000000000       ,   -3.3832349257696293       ,   -3.5296387054815881     
   1.0400000000000000       ,   -3.2952472070845218       ,   -3.4973956712364633     
   1.0600000000000001       ,   -3.1926995279669170       ,   -3.4591195470667815     
   1.0800000000000001       ,   -3.0800360478779467       ,   -3.4164343898705845     
   1.1000000000000001       ,   -2.9621478430338470       ,   -3.3711702368520560     
   1.1200000000000001       ,   -2.8441625331239302       ,   -3.3252901465458069     
   1.1400000000000001       ,   -2.7312239301964225       ,   -3.2808119266663609     
   1.1600000000000001       ,   -2.6282708336605674       ,   -3.2397275783942914     
   1.1799999999999999       ,   -2.5398241018065852       ,   -3.2039235384871390     
   1.2000000000000000       ,   -2.4697907662398295       ,   -3.1751047326904276     
   1.2200000000000000       ,   -2.4212932374197558       ,   -3.1547252710305758     
   1.2400000000000000       ,   -2.3965306075488066       ,   -3.1439283268888079     
   1.2600000000000000       ,   -2.3966777347456136       ,   -3.1434973604998366     
   1.2800000000000000       ,   -2.4218262442449228       ,   -3.1538203903340181     
   1.3000000000000000       ,   -2.4709698716379744       ,   -3.1748685020357721     
   1.3200000000000001       ,   -2.5420347695229104       ,   -3.2061892353901174     
   1.3400000000000001       ,   -2.6319535754349825       ,   -3.2469149273221047     
   1.3600000000000001       ,   -2.7367802691214753       ,   -3.2957855353969125     
   1.3800000000000001       ,   -2.8518412021866144       ,   -3.3511849430233602     
   1.4000000000000001       ,   -2.9719162286115646       ,   -3.4111892742151775     
   1.4200000000000002       ,   -3.0914426584622161       ,   -3.4736253395113992     
   1.4399999999999999       ,   -3.2047338468154845       ,   -3.5361370095783995     
   1.4600000000000000       ,   -3.3062036510552897       ,   -3.5962570795812772     
   1.4800000000000000       ,   -3.3905877642423685       ,   -3.6514820521471121     
   1.5000000000000000       ,   -3.4531530680008578       ,   -3.6993472320546221     
   1.5200000000000000       ,   -3.4898866385200407       ,   -3.7374995899730648     
   1.5400000000000000       ,   -3.4976568628969238       ,   -3.7637660100059205     
   1.5600000000000001       ,   -3.4743402459329293       ,   -3.7762147772437409     
   1.5800000000000001       ,   -3.4189088636076317       ,   -3.7732084746599046     
   1.6000000000000001       ,   -3.3314749928288534       ,   -3.7534468286435629     
   1.6200000000000001       ,   -3.2132911541172291       ,   -3.7159984525916432     
   1.6400000000000001       ,   -3.0667055760053339       ,   -3.6603208705443553     
   1.6600000000000001       ,   -2.8950748562343511       ,   -3.5862686398315518     
   1.6800000000000002       ,   -2.7026372850177247       ,   -3.4940898155641951     
   1.7000000000000000       ,   -2.4943518428113012       ,   -3.3844113942389935     
   1.7200000000000000       ,   -2.2757092283350726       ,   -3.2582147242699109     
   1.7400000000000000       ,   -2.0525223596311348       ,   -3.1168021658965803     
   1.7600000000000000       ,   -1.8307045798077044       ,   -2.9617565124826744     
   1.7800000000000000       ,   -1.6160442600025733       ,   -2.7948948437064378     
   1.8000000000000000       ,   -1.4139846084078087       ,   -2.6182185658690904     
   1.8200000000000001       ,   -1.2294172631322646       ,   -2.4338614061220527     
   1.8400000000000001       ,   -1.0664976792523726       ,   -2.2440370696151040     
   1.8600000000000001       ,  -0.92848944091182906       ,   -2.0509881480414882     
   1.8800000000000001       ,  -0.81764347429331774       ,   -1.8569376939085365     
   1.9000000000000001       ,  -0.73511675389890219       ,   -1.6640446581528190     
   1.9200000000000002       ,  -0.68093353876011875       ,   -1.4743641418695808     
   1.9399999999999999       ,  -0.65399050930547087       ,   -1.2898131490969555     
   1.9600000000000000       ,  -0.65210546589452278       ,   -1.1121422600301931     
   1.9800000000000000       ,  -0.67210756396821869       ,  -0.94291338543777170     
   2.0000000000000000       ,  -0.70996546438857155       ,  -0.78348352496939888     
   2.0200000000000000       ,  -0.76094833279523744       ,  -0.63499424438877117     
   2.0400000000000000       ,  -0.81981338413619231       ,  -0.49836641734855108     
   2.0600000000000001       ,  -0.88101268472710681       ,  -0.37429965157347567     
   2.0800000000000001       ,  -0.93891123061717463       ,  -0.26327574006277610     
   2.1000000000000001       ,  -0.98800794226378497       ,  -0.16556544535567458     
   2.1200000000000001       ,   -1.0231511634698871       ,   -8.1237936649076414E-002
   2.1400000000000001       ,   -1.0397405261435033       ,   -1.0172250876206244E-002
   2.1600000000000001       ,   -1.0339076277959742       ,    4.7929767029732277E-002
   2.1800000000000002       ,   -1.0026688397585504       ,    9.3529480953076463E-002
   2.2000000000000002       ,  -0.94404468383758444       ,   0.12723675038349028     
   2.2200000000000002       ,  -0.85714153712671526       ,   0.14979467192194798     
   2.2400000000000002       ,  -0.74219289508700792       ,   0.16206383745440969     
   2.2600000000000002       ,  -0.60055898271350538       ,   0.16500606302730852     
   2.2800000000000002       ,  -0.43468509074249001       ,   0.15966745786433881     
   2.3000000000000003       ,  -0.24802056622186835       ,   0.14716064854718036     
   2.3200000000000003       ,   -4.4901844339267381E-002  ,   0.12864595402599804     
   2.3399999999999999       ,   0.16959578431636446       ,   0.10531132544643058     
   2.3599999999999999       ,   0.38983186870300868       ,    7.8350920956336084E-002
   2.3799999999999999       ,   0.60979328331246063       ,    4.8942277385624733E-002
   2.3999999999999999       ,   0.82329823480479447       ,    1.8222163273825441E-002
   2.4199999999999999       ,    1.0242042083973630       ,   -1.2738655729072868E-002
   2.4399999999999999       ,    1.2066122587391899       ,   -4.2961346276817684E-002
   2.4600000000000000       ,    1.3650603273147719       ,   -7.1585071870523084E-002
   2.4800000000000000       ,    1.4946988214928256       ,   -9.7892471926702751E-002
   2.5000000000000000       ,    1.5914424925491810       ,  -0.12133369115953302     
   2.5200000000000000       ,    1.6520936652757743       ,  -0.14154797984286338     
   2.5400000000000000       ,    1.6744330562053411       ,  -0.15838180883757069     
   2.5600000000000001       ,    1.6572757211265985       ,  -0.17190241381153457     
   2.5800000000000001       ,    1.6004910416642939       ,  -0.18240570750806248     
   2.6000000000000001       ,    1.5049870398414555       ,  -0.19041758144712034     
   2.6200000000000001       ,    1.3726606439463429       ,  -0.19668776049856290     
   2.6400000000000001       ,    1.2063167667449084       ,  -0.20217557378061135     
   2.6600000000000001       ,    1.0095601510540098       ,  -0.20802725868200234     
   2.6800000000000002       ,   0.78666484757856225       ,  -0.21554471387150806     
   2.7000000000000002       ,   0.54242688361696301       ,  -0.22614595157511358     
   2.7200000000000002       ,   0.28200613605460800       ,  -0.24131785640774905     
   2.7400000000000002       ,    1.0763625460884468E-002  ,  -0.26256222298121512     
   2.7600000000000002       ,  -0.26589960195965279       ,  -0.29133640140815065     
   2.7800000000000002       ,  -0.54269613298723507       ,  -0.32899021210079654     
   2.8000000000000003       ,  -0.81459303708340636       ,  -0.37670108245443096     
   2.8200000000000003       ,   -1.0769352795175096       ,  -0.43540959251608397     
   2.8399999999999999       ,   -1.3255479571093682       ,  -0.50575778059460230     
   2.8599999999999999       ,   -1.5568146267413772       ,  -0.58803264131494060     
   2.8799999999999999       ,   -1.7677300867793331       ,  -0.68211723914357303     
   2.8999999999999999       ,   -1.9559270931210138       ,  -0.78745175465446382     
   2.9199999999999999       ,   -2.1196775970444541       ,  -0.90300657733825151     
   2.9399999999999999       ,   -2.2578701353363884       ,   -1.0272692602105684     
   2.9600000000000000       ,   -2.3699659419257286       ,   -1.1582467645883225     
   2.9800000000000000       ,   -2.4559371473169112       ,   -1.2934839589046416     
   3.0000000000000000       ,   -2.5161910571779651       ,   -1.4300988077463832     
   3.0200000000000000       ,   -2.5514849320862316       ,   -1.5648341140746327     
   3.0400000000000000       ,   -2.5628359130033109       ,   -1.6941250790914875     
   3.0600000000000001       ,   -2.5514307470386930       ,   -1.8141813425784568     
   3.0800000000000001       ,   -2.5185397701623526       ,   -1.9210815849049532     
   3.1000000000000001       ,   -2.4654392112739205       ,   -2.0108782335477304     
   3.1200000000000001       ,   -2.3933453170817836       ,   -2.0797093442949142     
   3.1400000000000001       ,   -2.3033630883004328       ,   -2.1239143409739549     
   3.1600000000000001       ,   -2.1964515991664295       ,   -2.1401500155207183     
   3.1800000000000002       ,   -2.0734069827894901       ,   -2.1255030270060438     
   3.2000000000000002       ,   -1.9348632454124481       ,   -2.0775951042132648     
   3.2200000000000002       ,   -1.7813101649112117       ,   -1.9946772571914737     
   3.2400000000000002       ,   -1.6131266733152059       ,   -1.8757095395323646     
   3.2600000000000002       ,   -1.4306273573713939       ,   -1.7204232703803379     
   3.2800000000000002       ,   -1.2341190683391570       ,   -1.5293631136843202     
   3.3000000000000003       ,   -1.0239641395719574       ,   -1.3039070073458219     
   3.3200000000000003       ,  -0.80064638835329982       ,   -1.0462626176874552     
   3.3400000000000003       ,  -0.56483593950533217       ,  -0.75943974224757327     
   3.3599999999999999       ,  -0.31744895688480057       ,  -0.44719887050623769     
   3.3799999999999999       ,   -5.9698601140943011E-002  ,  -0.11397690993251876     
   3.3999999999999999       ,   0.20686606387627260       ,   0.23520813511956989     
   3.4199999999999999       ,   0.48033593723783852       ,   0.59487101038584456     
   3.4399999999999999       ,   0.75843455776793867       ,   0.95918840341231915     
   3.4600000000000000       ,    1.0385288513813293       ,    1.3221397381963527     
   3.4800000000000000       ,    1.3176583700626168       ,    1.6776553913030490     
   3.5000000000000000       ,    1.5925825821883601       ,    2.0197678472117992     
   3.5200000000000000       ,    1.8598449279150349       ,    2.3427611614769468     
   3.5400000000000000       ,    2.1158515601560217       ,    2.6413141100608457     
   3.5600000000000001       ,    2.3569619860522573       ,    2.9106325733924128     
   3.5800000000000001       ,    2.5795882366159413       ,    3.1465670298299315     
   3.6000000000000001       ,    2.7802987489146407       ,    3.3457115049150437     
   3.6200000000000001       ,    2.9559228649422886       ,    3.5054809242251026     
   3.6400000000000001       ,    3.1036517462487385       ,    3.6241645279260424     
   3.6600000000000001       ,    3.2211315779391057       ,    3.7009537992501045     
   3.6800000000000002       ,    3.3065451865516362       ,    3.7359442087324237     
   3.7000000000000002       ,    3.3586786127904684       ,    3.7301109505750980     
   3.7200000000000002       ,    3.3769697443173343       ,    3.6852597153248308     
   3.7400000000000002       ,    3.3615368017747049       ,    3.6039543726413226     
   3.7600000000000002       ,    3.3131852537500905       ,    3.4894241991199153     
   3.7800000000000002       ,    3.2333925804550940       ,    3.3454539512312347     
   3.8000000000000003       ,    3.1242711759960033       ,    3.1762606283274497     
   3.8200000000000003       ,    2.9885105388442743       ,    2.9863611757127937     
   3.8400000000000003       ,    2.8293007136920498       ,    2.7804356286081839     
   3.8599999999999999       ,    2.6502396816482818       ,    2.5631902858972673     
   3.8799999999999999       ,    2.4552280195887457       ,    2.3392254254084985     
   3.8999999999999999       ,    2.2483546380920347       ,    2.1129118339899651     
   3.9199999999999999       ,    2.0337777412702356       ,    1.8882800356857492     
   3.9399999999999999       ,    1.8156053180243450       ,    1.6689255755407340     
   3.9600000000000000       ,    1.5977794669954599       ,    1.4579330756493263     
   3.9800000000000000       ,    1.3839686781918470       ,    1.2578210490079980     
   4.0000000000000000       ,    1.1774718515488407       ,    1.0705086638148935     
   4.0199999999999996       ,   0.98113734185574775       ,   0.89730482655985244     
   4.0400000000000000       ,   0.79729970191974076       ,   0.73891912804500082     
   4.0599999999999996       ,   0.62773607796889830       ,   0.59549340362106373     
   4.0800000000000001       ,   0.47364342348285410       ,   0.46665192722704274     
   4.0999999999999996       ,   0.33563687285044125       ,   0.35156761548804799     
   4.1199999999999992       ,   0.21376878866068383       ,   0.24904108671313627     
   4.1399999999999997       ,   0.10756719996737460       ,   0.15758901914301970     
   4.1599999999999993       ,    1.6091615794050135E-002  ,    7.5537996952207975E-002
   4.1799999999999997       ,   -6.1996442266844157E-002  ,    1.1199292564496683E-003
   4.1999999999999993       ,  -0.12835136718851808       ,   -6.7434821398549297E-002
   4.2199999999999998       ,  -0.18485341728762156       ,  -0.13181026309085342     
   4.2399999999999993       ,  -0.23351448814555750       ,  -0.19352687145029271     
   4.2599999999999998       ,  -0.27638357787790707       ,  -0.25387581343256249     
   4.2799999999999994       ,  -0.31545573310710079       ,  -0.31386758118392066     
   4.2999999999999998       ,  -0.35258802460128563       ,  -0.37419666838322940     
   4.3199999999999994       ,  -0.38942572196136127       ,  -0.43522321762921390     
   4.3399999999999999       ,  -0.42734133406788766       ,  -0.49697183965551889     
   4.3599999999999994       ,  -0.46738857924833704       ,  -0.55914708304261385     
   4.3799999999999999       ,  -0.51027267317718250       ,  -0.62116434574262624     
   4.3999999999999995       ,  -0.55633760294961576       ,  -0.68219439450887509     
   4.4199999999999999       ,  -0.60557032354972617       ,  -0.74121911978715371     
   4.4399999999999995       ,  -0.65762109911164168       ,  -0.79709572256096006     
   4.4600000000000000       ,  -0.71183854574686967       ,  -0.84862622224117368     
   4.4799999999999995       ,  -0.76731734258440698       ,  -0.89462900193537032     
   4.5000000000000000       ,  -0.82295608671978115       ,  -0.93400907469866079     
   4.5199999999999996       ,  -0.87752239508743379       ,  -0.96582386124755970     
   4.5400000000000000       ,  -0.92972211561476803       ,  -0.98934150998829817     
   4.5599999999999996       ,  -0.97826940929064798       ,   -1.0040891525278455     
   4.5800000000000001       ,   -1.0219545057831949       ,   -1.0098889556590536     
