r(A) ,   X_ray-calc  ,   X_ray_exp_renorm
   2.0000000000000000E-002  ,   -2.5006357797773973       ,   -2.5887531855418358     
   4.0000000000000001E-002  ,   -2.5187691695594223       ,   -2.6005405029162461     
   5.9999999999999998E-002  ,   -2.5482596126804391       ,   -2.6197627384758757     
   8.0000000000000002E-002  ,   -2.5880390253452497       ,   -2.6458008727922198     
  0.10000000000000001       ,   -2.6366703384263510       ,   -2.6778195126470736     
  0.12000000000000001       ,   -2.6924029854326093       ,   -2.7147967311655883     
  0.13999999999999999       ,   -2.7532404239857171       ,   -2.7555605015307312     
  0.16000000000000000       ,   -2.8170170355487212       ,   -2.7988303760365674     
  0.17999999999999999       ,   -2.8814813809271280       ,   -2.8432628699439393     
  0.19999999999999998       ,   -2.9443825414888356       ,   -2.8874988752243547     
  0.22000000000000000       ,   -3.0035561578784304       ,   -2.9302113578014226     
  0.23999999999999999       ,   -3.0570067938460239       ,   -2.9701515859250418     
  0.26000000000000001       ,   -3.1029834019644320       ,   -3.0061921969515999     
  0.28000000000000003       ,   -3.1400449444704246       ,   -3.0373655326874882     
  0.30000000000000004       ,   -3.1671136151904205       ,   -3.0628958548202991     
  0.32000000000000001       ,   -3.1835136018430554       ,   -3.0822242848480235     
  0.34000000000000002       ,   -3.1889939023152736       ,   -3.0950255884251634     
  0.36000000000000004       ,   -3.1837343409525305       ,   -3.1012162316830851     
  0.38000000000000000       ,   -3.1683345963650877       ,   -3.1009534651762527     
  0.40000000000000002       ,   -3.1437867243237356       ,   -3.0946255272347449     
  0.42000000000000004       ,   -3.1114323113525120       ,   -3.0828333899846951     
  0.44000000000000000       ,   -3.0729060007999927       ,   -3.0663647856603475     
  0.46000000000000002       ,   -3.0300676695077806       ,   -3.0461615362988348     
  0.48000000000000004       ,   -2.9849259785127757       ,   -3.0232814558310364     
  0.50000000000000000       ,   -2.9395563579781361       ,   -2.9988562908531118     
  0.52000000000000002       ,   -2.8960167015252440       ,   -2.9740473077404403     
  0.54000000000000004       ,   -2.8562641299680860       ,   -2.9500002141541137     
  0.56000000000000005       ,   -2.8220761359343545       ,   -2.9278011196139571     
  0.58000000000000007       ,   -2.7949792410870713       ,   -2.9084351923169001     
  0.59999999999999998       ,   -2.7761879939353937       ,   -2.8927495598286925     
  0.62000000000000000       ,   -2.7665567207401218       ,   -2.8814218340653071     
  0.64000000000000001       ,   -2.7665459313918004       ,   -2.8749354226532371     
  0.66000000000000003       ,   -2.7762046967231413       ,   -2.8735625277490957     
  0.68000000000000005       ,   -2.7951696768007026       ,   -2.8773554397116801     
  0.70000000000000007       ,   -2.8226808166152355       ,   -2.8861464178194267     
  0.72000000000000008       ,   -2.8576130625429270       ,   -2.8995561254370674     
  0.73999999999999999       ,   -2.8985228162200203       ,   -2.9170102648610783     
  0.76000000000000001       ,   -2.9437072572158951       ,   -2.9377637495515687     
  0.78000000000000003       ,   -2.9912741551727531       ,   -2.9609314700016127     
  0.80000000000000004       ,   -3.0392193759890009       ,   -2.9855244644641608     
  0.82000000000000006       ,   -3.0855089814561540       ,   -3.0104901060841995     
  0.84000000000000008       ,   -3.1281626394071416       ,   -3.0347547708429956     
  0.85999999999999999       ,   -3.1653350089071011       ,   -3.0572673612764460     
  0.88000000000000000       ,   -3.1953918441919607       ,   -3.0770420321547500     
  0.90000000000000002       ,   -3.2169777686067551       ,   -3.0931984969009614     
  0.92000000000000004       ,   -3.2290729973356780       ,   -3.1049983858885728     
  0.94000000000000006       ,   -3.2310367221577807       ,   -3.1118762760960141     
  0.96000000000000008       ,   -3.2226353955399443       ,   -3.1134642100712817     
  0.97999999999999998       ,   -3.2040547443403984       ,   -3.1096087631286213     
   1.0000000000000000       ,   -3.1758949818367834       ,   -3.1003799920221078     
   1.0200000000000000       ,   -3.1391493455880117       ,   -3.0860718957328945     
   1.0400000000000000       ,   -3.0951667419367848       ,   -3.0671943284382652     
   1.0600000000000001       ,   -3.0455999002058931       ,   -3.0444566148413403     
   1.0800000000000001       ,   -2.9923410065842826       ,   -3.0187434175687349     
   1.1000000000000001       ,   -2.9374472773369376       ,   -2.9910836845411626     
   1.1200000000000001       ,   -2.8830593244139271       ,   -2.9626137512423991     
   1.1400000000000001       ,   -2.8313154487239780       ,   -2.9345358800675005     
   1.1600000000000001       ,   -2.7842651566343997       ,   -2.9080736793848447     
   1.1799999999999999       ,   -2.7437852278319865       ,   -2.8844259533551182     
   1.2000000000000000       ,   -2.7115015667114339       ,   -2.8647205866239598     
   1.2200000000000000       ,   -2.6887198491575370       ,   -2.8499700645005230     
   1.2400000000000000       ,   -2.6763676409903443       ,   -2.8410301699650322     
   1.2600000000000000       ,   -2.6749502269365939       ,   -2.8385632866172514     
   1.2800000000000000       ,   -2.6845218671533702       ,   -2.8430075761428983     
   1.3000000000000000       ,   -2.7046736126322717       ,   -2.8545530963374768     
   1.3200000000000001       ,   -2.7345381841823095       ,   -2.8731256888774759     
   1.3400000000000001       ,   -2.7728117765068165       ,   -2.8983792036313281     
   1.3600000000000001       ,   -2.8177920140113972       ,   -2.9296963478558924     
   1.3800000000000001       ,   -2.8674306827726417       ,   -2.9661981640034014     
   1.4000000000000001       ,   -2.9193993164738448       ,   -3.0067618589471414     
   1.4200000000000002       ,   -2.9711652436610358       ,   -3.0500464397498859     
   1.4399999999999999       ,   -3.0200753268459026       ,   -3.0945253654887415     
   1.4600000000000000       ,   -3.0634443544658261       ,   -3.1385252089647953     
   1.4800000000000000       ,   -3.0986448938985736       ,   -3.1802691429719916     
   1.5000000000000000       ,   -3.1231953824021574       ,   -3.2179239283351211     
   1.5200000000000000       ,   -3.1348433230315842       ,   -3.2496489887178543     
   1.5400000000000000       ,   -3.1316406595822164       ,   -3.2736461121432217     
   1.5600000000000001       ,   -3.1120087192463277       ,   -3.2882083214714322     
   1.5800000000000001       ,   -3.0747905206932300       ,   -3.2917665043153601     
   1.6000000000000001       ,   -3.0192887319254487       ,   -3.2829324840856255     
   1.6200000000000001       ,   -2.9452881069366579       ,   -3.2605373437229574     
   1.6400000000000001       ,   -2.8530618113041379       ,   -3.2236639767065536     
   1.6600000000000001       ,   -2.7433616416422453       ,   -3.1716730297233759     
   1.6800000000000002       ,   -2.6173927293494557       ,   -3.1042216108841219     
   1.7000000000000000       ,   -2.4767738729976156       ,   -3.0212743591512337     
   1.7200000000000000       ,   -2.3234851452821563       ,   -2.9231066971831119     
   1.7400000000000000       ,   -2.1598048512651205       ,   -2.8103003137630425     
   1.7600000000000000       ,   -1.9882382593309862       ,   -2.6837311364734995     
   1.7800000000000000       ,   -1.8114407730766093       ,   -2.5445502540604585     
   1.8000000000000000       ,   -1.6321383535336715       ,   -2.3941584256229733     
   1.8200000000000001       ,   -1.4530480332099420       ,   -2.2341749659681591     
   1.8400000000000001       ,   -1.2768012873152796       ,   -2.0664019198969386     
   1.8600000000000001       ,   -1.1058728483385374       ,   -1.8927845306799054     
   1.8800000000000001       ,  -0.94251727696497400       ,   -1.7153690685465284     
   1.9000000000000001       ,  -0.78871524782570279       ,   -1.5362591137526294     
   1.9200000000000002       ,  -0.64613108838986222       ,   -1.3575713868451669     
   1.9399999999999999       ,  -0.51608264139706905       ,   -1.1813921881506291     
   1.9600000000000000       ,  -0.39952402508195067       ,   -1.0097354520784649     
   1.9800000000000000       ,  -0.29704136130113656       ,  -0.84450334295134100     
   2.0000000000000000       ,  -0.20886104968169555       ,  -0.68745022156585389     
   2.0200000000000000       ,  -0.13486970530685363       ,  -0.54015069960247031     
   2.0400000000000000       ,   -7.4644465807186366E-002  ,  -0.40397237645397505     
   2.0600000000000001       ,   -2.7492026243023483E-002  ,  -0.28005372403721190     
   2.0800000000000001       ,    7.5055108782076272E-003  ,  -0.16928745345885804     
   2.1000000000000001       ,    3.1440068818038291E-002  ,   -7.2309566423268384E-002
   2.1200000000000001       ,    4.5524506604223774E-002  ,    1.0505833049957383E-002
   2.1400000000000001       ,    5.1039202635833995E-002  ,    7.9046012247645223E-002
   2.1600000000000001       ,    4.9280422552117342E-002  ,   0.13345352757755236     
   2.1800000000000002       ,    4.1512412499990166E-002  ,   0.17411484924127879     
   2.2000000000000002       ,    2.8924915487540340E-002  ,   0.20164404896339624     
   2.2200000000000002       ,    1.2597503432798127E-002  ,   0.21686198977383464     
   2.2400000000000002       ,   -6.5282345940884598E-003  ,   0.22077152881056986     
   2.2600000000000002       ,   -2.7667990336163486E-002  ,   0.21452930541895163     
   2.2800000000000002       ,   -5.0205259433655745E-002  ,   0.19941473780867683     
   2.3000000000000003       ,   -7.3693221295143649E-002  ,   0.17679689259502732     
   2.3200000000000003       ,   -9.7848479617106687E-002  ,   0.14809992308146508     
   2.3399999999999999       ,  -0.12253750348938995       ,   0.11476779441993333     
   2.3599999999999999       ,  -0.14775689533528930       ,    7.8229026935518600E-002
   2.3799999999999999       ,  -0.17360883728779555       ,    3.9862192847073367E-002
   2.3999999999999999       ,  -0.20027322370274583       ,    9.6289606248525360E-004
   2.4199999999999999       ,  -0.22797806926673980       ,   -3.7287050817302457E-002
   2.4399999999999999       ,  -0.25696978786304125       ,   -7.3847564349349151E-002
   2.4600000000000000       ,  -0.28748486870127515       ,  -0.10784469263622684     
   2.4800000000000000       ,  -0.31972433816106244       ,  -0.13859088176127723     
   2.5000000000000000       ,  -0.35383219632073842       ,  -0.16560056854635230     
   2.5200000000000000       ,  -0.38987876683298595       ,  -0.18860063814848022     
   2.5400000000000000       ,  -0.42784961038006369       ,  -0.20753537498980767     
   2.5600000000000001       ,  -0.46764033963157586       ,  -0.22256563909550464     
   2.5800000000000001       ,  -0.50905735255629536       ,  -0.23406211647468533     
   2.6000000000000001       ,  -0.55182418642358677       ,  -0.24259262053311939     
   2.6200000000000001       ,  -0.59559290170064905       ,  -0.24890355984572413     
   2.6400000000000001       ,  -0.63995964699574670       ,  -0.25389583348953504     
   2.6600000000000001       ,  -0.68448334515501230       ,  -0.25859556545269130     
   2.6800000000000002       ,  -0.72870628626245870       ,  -0.26412024070588186     
   2.7000000000000002       ,  -0.77217532260178279       ,  -0.27164095314468212     
   2.7200000000000002       ,  -0.81446233760943787       ,  -0.28234161517565431     
   2.7400000000000002       ,  -0.85518270632246307       ,  -0.29737610535638576     
   2.7600000000000002       ,  -0.89401057646195636       ,  -0.31782443925303450     
   2.7800000000000002       ,  -0.93068997168693113       ,  -0.34464913469624708     
   2.8000000000000003       ,  -0.96504094347763358       ,  -0.37865300135711827     
   2.8200000000000003       ,  -0.99696026488766587       ,  -0.42043961201156266     
   2.8399999999999999       ,   -1.0264164553992872       ,  -0.47037770572547882     
   2.8599999999999999       ,   -1.0534392372790857       ,  -0.52857072910802716     
   2.8799999999999999       ,   -1.0781038353420760       ,  -0.59483263946938159     
   2.8999999999999999       ,   -1.1005108289552470       ,  -0.66867097313248491     
   2.9199999999999999       ,   -1.1207625330657562       ,  -0.74927802455653536     
   2.9399999999999999       ,   -1.1389371108431401       ,  -0.83553078997361507     
   2.9600000000000000       ,   -1.1550617927902407       ,  -0.92600010692554402     
   2.9800000000000000       ,   -1.1690866868283527       ,   -1.0189691737285091     
   3.0000000000000000       ,   -1.1808607045524551       ,   -1.1124613669950068     
   3.0200000000000000       ,   -1.1901110972699402       ,   -1.2042769984380830     
   3.0400000000000000       ,   -1.1964279914739377       ,   -1.2920383726131421     
   3.0600000000000001       ,   -1.1992551401909597       ,   -1.3732422339078114     
   3.0800000000000001       ,   -1.1978878704465186       ,   -1.4453184331161071     
   3.1000000000000001       ,   -1.1914789170664526       ,   -1.5056934104096216     
   3.1200000000000001       ,   -1.1790525008532509       ,   -1.5518568911317034     
   3.1400000000000001       ,   -1.1595266485678117       ,   -1.5814300315465619     
   3.1600000000000001       ,   -1.1317433783036439       ,   -1.5922331403845551     
   3.1800000000000002       ,   -1.0945060027960938       ,   -1.5823510443062736     
   3.2000000000000002       ,   -1.0466224511576483       ,   -1.5501941652337738     
   3.2200000000000002       ,  -0.98695319213597832       ,   -1.4945534370392934     
   3.2400000000000002       ,  -0.91446207371686339       ,   -1.4146473085605846     
   3.2600000000000002       ,  -0.82826818737345642       ,   -1.3101592575227934     
   3.2800000000000002       ,  -0.72769673074644070       ,   -1.1812644718466863     
   3.3000000000000003       ,  -0.61232678743241631       ,   -1.0286446352014926     
   3.3200000000000003       ,  -0.48203397107939444       ,  -0.85349007488115347     
   3.3400000000000003       ,  -0.33702599395432331       ,  -0.65748888289445140     
   3.3599999999999999       ,  -0.17786941489879390       ,  -0.44280299497879078     
   3.3799999999999999       ,   -5.5060920586113846E-003  ,  -0.21203159548978640     
   3.3999999999999999       ,   0.17874179730131587       ,    3.1837403415414273E-002
   3.4199999999999999       ,   0.37317891631753469       ,   0.28548669460121812     
   3.4399999999999999       ,   0.57575642269523519       ,   0.54533826916253048     
   3.4600000000000000       ,   0.78410397820414790       ,   0.80762971936032191     
   3.4800000000000000       ,   0.99557351353511470       ,    1.0684961509077566     
   3.5000000000000000       ,    1.2072936998563926       ,    1.3240555128106273     
   3.5200000000000000       ,    1.4162336594101219       ,    1.5704950270049889     
   3.5400000000000000       ,    1.6192740749642858       ,    1.8041563446026074     
   3.5600000000000001       ,    1.8132835470240849       ,    2.0216170734097516     
   3.5800000000000001       ,    1.9951978112905335       ,    2.2197664128448085     
   3.6000000000000001       ,    2.1620992770241343       ,    2.3958727952694585     
   3.6200000000000001       ,    2.3112942866072692       ,    2.5476416624427163     
   3.6400000000000001       ,    2.4403855310703433       ,    2.6732617953637066     
   3.6600000000000001       ,    2.5473371853628168       ,    2.7714389561382959     
   3.6800000000000002       ,    2.6305305467449869       ,    2.8414159808304333     
   3.7000000000000002       ,    2.6888082623482781       ,    2.8829788702372605     
   3.7200000000000002       ,    2.7215056069421792       ,    2.8964488478273811     
   3.7400000000000002       ,    2.7284677056469193       ,    2.8826607768078816     
   3.7600000000000002       ,    2.7100520728095234       ,    2.8429287374596006     
   3.7800000000000002       ,    2.6671163398767721       ,    2.7789999479373479     
   3.8000000000000003       ,    2.6009915531880781       ,    2.6929985539965156     
   3.8200000000000003       ,    2.5134419182162384       ,    2.5873611042534734     
   3.8400000000000003       ,    2.4066123313901464       ,    2.4647657580332583     
   3.8599999999999999       ,    2.2829654568935900       ,    2.3280574351225209     
   3.8799999999999999       ,    2.1452104582431049       ,    2.1801712057099865     
   3.8999999999999999       ,    1.9962257699470221       ,    2.0240562318922626     
   3.9199999999999999       ,    1.8389784830298119       ,    1.8626025094262959     
   3.9399999999999999       ,    1.6764430129057055       ,    1.6985725226368640     
   3.9600000000000000       ,    1.5115217158338721       ,    1.5345397217953620     
   3.9800000000000000       ,    1.3469700215292553       ,    1.3728354684818567     
   4.0000000000000000       ,    1.1853284586610275       ,    1.2155057801029501     
   4.0199999999999996       ,    1.0288636746717019       ,    1.0642788512587731     
   4.0400000000000000       ,   0.87952020250834562       ,   0.92054394972808051     
   4.0599999999999996       ,   0.73888431813738220       ,   0.78534189200507332     
   4.0800000000000001       ,   0.60816087998403057       ,   0.65936691144942583     
   4.0999999999999996       ,   0.48816356213939455       ,   0.54297935491850258     
   4.1199999999999992       ,   0.37931840564022362       ,   0.43622829429183002     
   4.1399999999999997       ,   0.28168013484298848       ,   0.33888282949842058     
   4.1599999999999993       ,   0.19496023682187091       ,   0.25047059988364023     
   4.1799999999999997       ,   0.11856539750491933       ,   0.17032181944399799     
   4.1999999999999993       ,    5.1644543713355383E-002  ,    9.7617014835486265E-002
   4.2199999999999998       ,   -6.8575322820567568E-003  ,    3.1436576910634832E-002
   4.2399999999999993       ,   -5.8142180213926836E-002  ,   -2.9189761899207863E-002
   4.2599999999999998       ,  -0.10349684938718334       ,   -8.5235342101905989E-002
   4.2799999999999994       ,  -0.14423532781502602       ,  -0.13763256682477365     
   4.2999999999999998       ,  -0.18164051835138367       ,  -0.18723395705289986     
   4.3199999999999994       ,  -0.21691184620799464       ,  -0.23477951981167763     
   4.3399999999999999       ,  -0.25111915379928190       ,  -0.28087139351274165     
   4.3599999999999994       ,  -0.28516463355947003       ,  -0.32595642269667330     
   4.3799999999999999       ,  -0.31975399026095497       ,  -0.37031698585238687     
   4.3999999999999995       ,  -0.35537762640931592       ,  -0.41407006756117204     
   4.4199999999999999       ,  -0.39230222380470020       ,  -0.45717424254757766     
   4.4399999999999995       ,  -0.43057266831172736       ,  -0.49944393643907398     
   4.4600000000000000       ,  -0.47002385022199356       ,  -0.54057005728303564     
   4.4799999999999995       ,  -0.51030148558331390       ,  -0.58014586289236048     
   4.5000000000000000       ,  -0.55089075943225074       ,  -0.61769674989332202     
   4.5199999999999996       ,  -0.59115130301224350       ,  -0.65271252690250392     
   4.5400000000000000       ,  -0.63035679438867476       ,  -0.68468067030069268     
   4.5599999999999996       ,  -0.66773732317848955       ,  -0.71311905798629782     
   4.5800000000000001       ,  -0.70252259010681761       ,  -0.73760673329184656     
