r(A) ,   X_ray-calc  ,   X_ray_exp_renorm
   2.0000000000000000E-002  ,   0.16498512543383265       ,   -1.4674556310952496     
   4.0000000000000001E-002  ,    8.2718674533486927E-002  ,   -1.5290616522860323     
   5.9999999999999998E-002  ,   -5.1633404386185335E-002  ,   -1.6297796261242525     
   8.0000000000000002E-002  ,  -0.23403412150911915       ,   -1.7667403346458725     
  0.10000000000000001       ,  -0.45902987839990461       ,   -1.9360620762613774     
  0.12000000000000001       ,  -0.71993982005663471       ,   -2.1329800279191971     
  0.13999999999999999       ,   -1.0090870454402070       ,   -2.3520044682445747     
  0.16000000000000000       ,   -1.3180631433106942       ,   -2.5871022058549644     
  0.17999999999999999       ,   -1.6380163130089749       ,   -2.8318947457390653     
  0.19999999999999998       ,   -1.9599524935729435       ,   -3.0798661555742504     
  0.22000000000000000       ,   -2.2750384903807666       ,   -3.3245732837211581     
  0.23999999999999999       ,   -2.5748960718876988       ,   -3.5598509420191897     
  0.26000000000000001       ,   -2.8518764093125251       ,   -3.7800048997320190     
  0.28000000000000003       ,   -3.0993050325672700       ,   -3.9799860300822196     
  0.30000000000000004       ,   -3.3116886441194286       ,   -4.1555396879108439     
  0.32000000000000001       ,   -3.4848766225101766       ,   -4.3033253471605146     
  0.34000000000000002       ,   -3.6161718003193122       ,   -4.4210026532314268     
  0.36000000000000004       ,   -3.7043870489005646       ,   -4.5072813044415492     
  0.38000000000000000       ,   -3.7498462683842519       ,   -4.5619335206794682     
  0.40000000000000002       ,   -3.7543304861604838       ,   -4.5857692348065244     
  0.42000000000000004       ,   -3.7209718290868121       ,   -4.5805755014338816     
  0.44000000000000000       ,   -3.6541000748259118       ,   -4.5490229074239474     
  0.46000000000000002       ,   -3.5590482319632688       ,   -4.4945429409126474     
  0.48000000000000004       ,   -3.4419250808316013       ,   -4.4211812877210788     
  0.50000000000000000       ,   -3.3093637717875755       ,   -4.3334328390846961     
  0.52000000000000002       ,   -3.1682563822239453       ,   -4.2360647838589394     
  0.54000000000000004       ,   -3.0254847493275605       ,   -4.1339345018164639     
  0.56000000000000005       ,   -2.8876579093157835       ,   -4.0318090619560571     
  0.58000000000000007       ,   -2.7608660881786347       ,   -3.9341929604082844     
  0.59999999999999998       ,   -2.6504604219875501       ,   -3.8451703158823012     
  0.62000000000000000       ,   -2.5608664695582699       ,   -3.7682670953595063     
  0.64000000000000001       ,   -2.4954381630372175       ,   -3.7063380961749015     
  0.66000000000000003       ,   -2.4563571806928484       ,   -3.6614823974373811     
  0.68000000000000005       ,   -2.4445808878711852       ,   -3.6349898546393158     
  0.70000000000000007       ,   -2.4598400502255120       ,   -3.6273199913821159     
  0.72000000000000008       ,   -2.5006855549936642       ,   -3.6381133890732404     
  0.73999999999999999       ,   -2.5645814587885774       ,   -3.6662344376092904     
  0.76000000000000001       ,   -2.6480398890161072       ,   -3.7098431346567073     
  0.78000000000000003       ,   -2.7467917300398095       ,   -3.7664925523813508     
  0.80000000000000004       ,   -2.8559856857451447       ,   -3.8332476678909577     
  0.82000000000000006       ,   -2.9704072777861961       ,   -3.9068205106096578     
  0.84000000000000008       ,   -3.0847086515773934       ,   -3.9837160422835303     
  0.85999999999999999       ,   -3.1936397441225335       ,   -4.0603828710044079     
  0.88000000000000000       ,   -3.2922714283554941       ,   -4.1333628183247244     
  0.90000000000000002       ,   -3.3762016820316303       ,   -4.1994335078997072     
  0.92000000000000004       ,   -3.4417366148536370       ,   -4.2557385158271082     
  0.94000000000000006       ,   -3.4860392911215845       ,   -4.2999001991559789     
  0.96000000000000008       ,   -3.5072406600874562       ,   -4.3301110744187064     
  0.97999999999999998       ,   -3.5045084952841279       ,   -4.3452005204348909     
   1.0000000000000000       ,   -3.4780719822289563       ,   -4.3446745917436038     
   1.0200000000000000       ,   -3.4292014104995183       ,   -4.3287278098541995     
   1.0400000000000000       ,   -3.3601442480948038       ,   -4.2982269060376774     
   1.0600000000000001       ,   -3.2740206304434656       ,   -4.2546675782824455     
   1.0800000000000001       ,   -3.1746829138677306       ,   -4.2001063543658601     
   1.1000000000000001       ,   -3.0665453602274058       ,   -4.1370705838270947     
   1.1200000000000001       ,   -2.9543911808120882       ,   -4.0684503795503915     
   1.1400000000000001       ,   -2.8431650289022654       ,   -3.9973769660438889     
   1.1600000000000001       ,   -2.7377595596776585       ,   -3.9270923445061774     
   1.1799999999999999       ,   -2.6428048547144232       ,   -3.8608154401508612     
   1.2000000000000000       ,   -2.5624693317298766       ,   -3.8016099487317514     
   1.2200000000000000       ,   -2.5002802382700464       ,   -3.7522589486091329     
   1.2400000000000000       ,   -2.4589709841832494       ,   -3.7151510017208169     
   1.2600000000000000       ,   -2.4403614381545862       ,   -3.6921819485318768     
   1.2800000000000000       ,   -2.4452759456085089       ,   -3.6846759320288287     
   1.3000000000000000       ,   -2.4735022754078591       ,   -3.6933283931761487     
   1.3200000000000001       ,   -2.5237930343188082       ,   -3.7181728982651627     
   1.3400000000000001       ,   -2.5939093687676333       ,   -3.7585727233713038     
   1.3600000000000001       ,   -2.6807050721151189       ,   -3.8132371701374628     
   1.3800000000000001       ,   -2.7802476004017600       ,   -3.8802616575662543     
   1.4000000000000001       ,   -2.8879710342152198       ,   -3.9571897620082148     
   1.4200000000000002       ,   -2.9988547664752057       ,   -4.0410945946033721     
   1.4399999999999999       ,   -3.1076206942866378       ,   -4.1286762403061417     
   1.4600000000000000       ,   -3.2089409857510902       ,   -4.2163714582215919     
   1.4800000000000000       ,   -3.2976481058955889       ,   -4.3004714761092977     
   1.5000000000000000       ,   -3.3689387328384006       ,   -4.3772435127340499     
   1.5200000000000000       ,   -3.4185634757309549       ,   -4.4430516335219403     
   1.5400000000000000       ,   -3.4429949063731238       ,   -4.4944726841245739     
   1.5600000000000001       ,   -3.4395673105453448       ,   -4.5284033428632036     
   1.5800000000000001       ,   -3.4065827153967536       ,   -4.5421547705083753     
   1.6000000000000001       ,   -3.3433791081424293       ,   -4.5335318931759030     
   1.6200000000000001       ,   -3.2503582734188252       ,   -4.5008950058484345     
   1.6400000000000001       ,   -3.1289722808461735       ,   -4.4432021017046104     
   1.6600000000000001       ,   -2.9816692864271204       ,   -4.3600310858205686     
   1.6800000000000002       ,   -2.8118009065797658       ,   -4.2515817901755293     
   1.7000000000000000       ,   -2.6234949190883730       ,   -4.1186584403015951     
   1.7200000000000000       ,   -2.4214983827858756       ,   -3.9626339044120771     
   1.7400000000000000       ,   -2.2109973958634126       ,   -3.7853976585556848     
   1.7600000000000000       ,   -1.9974205886020713       ,   -3.5892899054232035     
   1.7800000000000000       ,   -1.7862340376871941       ,   -3.3770246737915275     
   1.8000000000000000       ,   -1.5827355753034797       ,   -3.1516049894209868     
   1.8200000000000001       ,   -1.3918564384048617       ,   -2.9162333412841401     
   1.8400000000000001       ,   -1.2179778658752882       ,   -2.6742206696628008     
   1.8600000000000001       ,   -1.0647696199186218       ,   -2.4288969806709444     
   1.8800000000000001       ,  -0.93505651053709782       ,   -2.1835264558872294     
   1.9000000000000001       ,  -0.83071787618751136       ,   -1.9412295911006778     
   1.9200000000000002       ,  -0.75262366604646724       ,   -1.7049144833224354     
   1.9399999999999999       ,  -0.70060933282899152       ,   -1.4772189114481646     
   1.9600000000000000       ,  -0.67349023731851321       ,   -1.2604643461208993     
   1.9800000000000000       ,  -0.66911474634487544       ,   -1.0566225018361080     
   2.0000000000000000       ,  -0.68445373429550616       ,  -0.86729453203341367     
   2.0200000000000000       ,  -0.71572283115216184       ,  -0.69370248720828975     
   2.0400000000000000       ,  -0.75853254946566484       ,  -0.53669222592233945     
   2.0600000000000001       ,  -0.80806041372940074       ,  -0.39674660478798551     
   2.0800000000000001       ,  -0.85923844486952905       ,  -0.27400748807469621     
   2.1000000000000001       ,  -0.90694884673934528       ,  -0.16830491836845313     
   2.1200000000000001       ,  -0.94622051649554872       ,   -7.9191680160648731E-002
   2.1400000000000001       ,  -0.97241906117443733       ,   -5.9814674054118559E-003
   2.1600000000000001       ,  -0.98142334201199222       ,    5.2211071161248762E-002
   2.1800000000000002       ,  -0.96978216853368759       ,    9.6429997715337071E-002
   2.2000000000000002       ,  -0.93484559865144845       ,   0.12783885085594957     
   2.2200000000000002       ,  -0.87486633266997882       ,   0.14768365188918731     
   2.2400000000000002       ,  -0.78906787478678175       ,   0.15725901348955146     
   2.2600000000000002       ,  -0.67767742661821206       ,   0.15787791871442119     
   2.2800000000000002       ,  -0.54192282146852644       ,   0.15084544761856172     
   2.3000000000000003       ,  -0.38399415230508038       ,   0.13743645715502650     
   2.3200000000000003       ,  -0.20697203853631338       ,   0.11887698220119580     
   2.3399999999999999       ,   -1.4725667606370552E-002  ,    9.6328933533322975E-002
   2.3599999999999999       ,   0.18821520699964248       ,    7.0877531503959257E-002
   2.3799999999999999       ,   0.39680926696532248       ,    4.3520837751086727E-002
   2.3999999999999999       ,   0.60566793463539548       ,    1.5160733521368519E-002
   2.4199999999999999       ,   0.80922886988355169       ,   -1.3405259550326220E-002
   2.4399999999999999       ,    1.0019323707077863       ,   -4.1491817347492341E-002
   2.4600000000000000       ,    1.1783944591132249       ,   -6.8533660743835101E-002
   2.4800000000000000       ,    1.3335707379483641       ,   -9.4093577296239128E-002
   2.5000000000000000       ,    1.4629056251236505       ,  -0.11787057307604699     
   2.5200000000000000       ,    1.5624622825670240       ,  -0.13970789417384197     
   2.5400000000000000       ,    1.6290294248706931       ,  -0.15960044888272484     
   2.5600000000000001       ,    1.6602021778958953       ,  -0.17770097616413649     
   2.5800000000000001       ,    1.6544352179134834       ,  -0.19432415795581096     
   2.6000000000000001       ,    1.6110675125378406       ,  -0.20994777458385405     
   2.6200000000000001       ,    1.5303190610993374       ,  -0.22520996384089723     
   2.6400000000000001       ,    1.4132610513485551       ,  -0.24090167192125930     
   2.6600000000000001       ,    1.2617617721938907       ,  -0.25795348154014858     
   2.6800000000000002       ,    1.0784114143404644       ,  -0.27741616857443291     
   2.7000000000000002       ,   0.86642952442302090       ,  -0.30043456892596138     
   2.7200000000000002       ,   0.62955933312184442       ,  -0.32821462373779992     
   2.7400000000000002       ,   0.37195344152222004       ,  -0.36198380183923762     
   2.7600000000000002       ,    9.8055418740410821E-002  ,  -0.40294545863246650     
   2.7800000000000002       ,  -0.18751825792062046       ,  -0.45222806350292261     
   2.8000000000000003       ,  -0.48009178884161752       ,  -0.51083059461337132     
   2.8200000000000003       ,  -0.77503549070660804       ,  -0.57956574130772864     
   2.8399999999999999       ,   -1.0678600051726148       ,  -0.65900285120725011     
   2.8599999999999999       ,   -1.3542968869846883       ,  -0.74941279349068457     
   2.8799999999999999       ,   -1.6303639401465060       ,  -0.85071706593964946     
   2.8999999999999999       ,   -1.8924144607775906       ,  -0.96244353812839012     
   2.9199999999999999       ,   -2.1371703295077880       ,   -1.0836911872947863     
   2.9399999999999999       ,   -2.3617396393978729       ,   -1.2131060417959183     
   2.9600000000000000       ,   -2.5636202149991236       ,   -1.3488702990746526     
   2.9800000000000000       ,   -2.7406909460639128       ,   -1.4887062349869165     
   3.0000000000000000       ,   -2.8911933027708350       ,   -1.6298960781957068     
   3.0200000000000000       ,   -3.0137057015976518       ,   -1.7693185007169183     
   3.0400000000000000       ,   -3.1071135425381184       ,   -1.9035017913180063     
   3.0600000000000001       ,   -3.1705777367919779       ,   -2.0286931535253339     
   3.0800000000000001       ,   -3.2035043941195491       ,   -2.1409429283773926     
   3.1000000000000001       ,   -3.2055180523365268       ,   -2.2362019093968182     
   3.1200000000000001       ,   -3.1764404257192798       ,   -2.3104293198669219     
   3.1400000000000001       ,   -3.1162761474684948       ,   -2.3597084863012419     
   3.1600000000000001       ,   -3.0252064110624914       ,   -2.3803667913752395     
   3.1800000000000002       ,   -2.9035908063913816       ,   -2.3690961463329399     
   3.2000000000000002       ,   -2.7519770304988329       ,   -2.3230700051722102     
   3.2200000000000002       ,   -2.5711175610357850       ,   -2.2400528644706927     
   3.2400000000000002       ,   -2.3619918431304670       ,   -2.1184982620939512     
   3.2600000000000002       ,   -2.1258320844352188       ,   -1.9576315081157722     
   3.2800000000000002       ,   -1.8641504016767645       ,   -1.7575137490303439     
   3.3000000000000003       ,   -1.5787648330575408       ,   -1.5190844727250912     
   3.3200000000000003       ,   -1.2718216363687691       ,   -1.2441801919356170     
   3.3400000000000003       ,  -0.94581133828784503       ,  -0.93552777794419761     
   3.3599999999999999       ,  -0.60357618498458276       ,  -0.59671172941795414     
   3.3799999999999999       ,  -0.24830696019891904       ,  -0.23211552509245076     
   3.3999999999999999       ,   0.11647242951067975       ,   0.15316190760231244     
   3.4199999999999999       ,   0.48693367109129421       ,   0.55341270548531596     
   3.4399999999999999       ,   0.85898652623504979       ,   0.96244683706052547     
   3.4600000000000000       ,    1.2283348894153401       ,    1.3737356503128848     
   3.4800000000000000       ,    1.5905455672047815       ,    1.7805680865899149     
   3.5000000000000000       ,    1.9411282711426618       ,    2.1762149389006828     
   3.5200000000000000       ,    2.2756247100806282       ,    2.5540961795297781     
   3.5400000000000000       ,    2.5897041363770623       ,    2.9079461980746681     
   3.5600000000000001       ,    2.8792622693360297       ,    3.2319717863322306     
   3.5800000000000001       ,    3.1405202104358114       ,    3.5209978836675333     
   3.6000000000000001       ,    3.3701197944631156       ,    3.7705964515038612     
   3.6200000000000001       ,    3.5652117989711876       ,    3.9771943674863039     
   3.6400000000000001       ,    3.7235335653505297       ,    4.1381569013497055     
   3.6600000000000001       ,    3.8434728653998560       ,    4.2518441323766405     
   3.6800000000000002       ,    3.9241152681899822       ,    4.3176385643711370     
   3.7000000000000002       ,    3.9652728075919281       ,    4.3359431561551514     
   3.7200000000000002       ,    3.9674923999034286       ,    4.3081499788356803     
   3.7400000000000002       ,    3.9320431876948598       ,    4.2365806992006902     
   3.7600000000000002       ,    3.8608827608748029       ,    4.1244010352815454     
   3.7800000000000002       ,    3.7566029972892010       ,    3.9755122004667172     
   3.8000000000000003       ,    3.6223570401923180       ,    3.7944231144118317     
   3.8200000000000003       ,    3.4617696563621214       ,    3.5861077842303408     
   3.8400000000000003       ,    3.2788338659902960       ,    3.3558527250421468     
   3.8599999999999999       ,    3.0777972763799859       ,    3.1090995779054649     
   3.8799999999999999       ,    2.8630419628495067       ,    2.8512881851584422     
   3.8999999999999999       ,    2.6389620042616988       ,    2.5877052950555903     
   3.9199999999999999       ,    2.4098428855248732       ,    2.3233437933427958     
   3.9399999999999999       ,    2.1797469200512154       ,    2.0627769102031186     
   3.9600000000000000       ,    1.9524086231219531       ,    1.8100512446031898     
   3.9800000000000000       ,    1.7311435907440356       ,    1.5686017082114214     
   4.0000000000000000       ,    1.5187739226487686       ,    1.3411906465029335     
   4.0199999999999996       ,    1.3175725931250111       ,    1.1298724780624483     
   4.0400000000000000       ,    1.1292284448888568       ,   0.93598423970486688     
   4.0599999999999996       ,   0.95483268853183134       ,   0.76016147133762124     
   4.0800000000000001       ,   0.79488696527654756       ,   0.60237795676300354     
   4.0999999999999996       ,   0.64933220713503659       ,   0.46200698950959013     
   4.1199999999999992       ,   0.51759673936604289       ,   0.33790108795028900     
   4.1399999999999997       ,   0.39866134716292101       ,   0.22848646886262763     
   4.1599999999999993       ,   0.29113840078955977       ,   0.13186812538880704     
   4.1799999999999997       ,   0.19336162595362405       ,    4.5941060117311160E-002
   4.1999999999999993       ,   0.10348273908346063       ,   -3.1496893927082562E-002
   4.2199999999999998       ,    1.9570954540949145E-002  ,  -0.10263516994109220     
   4.2399999999999993       ,   -6.0288679567165195E-002  ,  -0.16954775075580295     
   4.2599999999999998       ,  -0.13790204736041103       ,  -0.23410150852731093     
   4.2799999999999994       ,  -0.21488149270705942       ,  -0.29787892550448064     
   4.2999999999999998       ,  -0.29257335194426021       ,  -0.36211785438845406     
   4.3199999999999994       ,  -0.37200019189519701       ,  -0.42767021712430453     
   4.3399999999999999       ,  -0.45381980556376750       ,  -0.49498071950672684     
   4.3599999999999994       ,  -0.53830229342105018       ,  -0.56408580948185716     
   4.3799999999999999       ,  -0.62532578742264699       ,  -0.63463226399509554     
   4.3999999999999995       ,  -0.71439058997864602       ,  -0.70591398654927828     
   4.4199999999999999       ,  -0.80465073358543904       ,  -0.77692486718687415     
   4.4399999999999995       ,  -0.89496125028851337       ,  -0.84642492702034489     
   4.4600000000000000       ,  -0.98393880285390922       ,  -0.91301646494011968     
   4.4799999999999995       ,   -1.0700327972591064       ,  -0.97522656362481364     
   4.5000000000000000       ,   -1.1516036900913207       ,   -1.0315921083013886     
   4.5199999999999996       ,   -1.2270049404648211       ,   -1.0807434311616879     
   4.5400000000000000       ,   -1.2946649438991173       ,   -1.1214828165181301     
   4.5599999999999996       ,   -1.3531653285805534       ,   -1.1528543796026951     
   4.5800000000000001       ,   -1.4013121893932674       ,   -1.1742022520061297     
