r(A) ,   X_ray-calc  ,   X_ray_exp_renorm
   2.0000000000000000E-002  ,  -0.98834023295988804       ,   -1.3122173478366275     
   4.0000000000000001E-002  ,   -1.0397836430122458       ,   -1.3553201997440139     
   5.9999999999999998E-002  ,   -1.1238147710802029       ,   -1.4257983256962510     
   8.0000000000000002E-002  ,   -1.2379337054820856       ,   -1.5216592138580678     
  0.10000000000000001       ,   -1.3787620754055292       ,   -1.6402064684683157     
  0.12000000000000001       ,   -1.5421591932553436       ,   -1.7781289426592943     
  0.13999999999999999       ,   -1.7233639471413011       ,   -1.9316098065354383     
  0.16000000000000000       ,   -1.9171572584621872       ,   -2.0964516855053517     
  0.17999999999999999       ,   -2.1180391819187112       ,   -2.2682134465362056     
  0.19999999999999998       ,   -2.3204142110769781       ,   -2.4423538154995570     
  0.22000000000000000       ,   -2.5187780807412983       ,   -2.6143767912053240     
  0.23999999999999999       ,   -2.7078993374985205       ,   -2.7799737885021276     
  0.26000000000000001       ,   -2.8829891818106939       ,   -2.9351575944397266     
  0.28000000000000003       ,   -3.0398535592580931       ,   -3.0763835514923836     
  0.30000000000000004       ,   -3.1750221760169959       ,   -3.2006538771067214     
  0.32000000000000001       ,   -3.2858500069524386       ,   -3.3056016700954989     
  0.34000000000000002       ,   -3.3705879189698260       ,   -3.3895519169941788     
  0.36000000000000004       ,   -3.4284202066130844       ,   -3.4515576663403862     
  0.38000000000000000       ,   -3.4594680860108555       ,   -3.4914104535436019     
  0.40000000000000002       ,   -3.4647594691756574       ,   -3.5096249991374395     
  0.42000000000000004       ,   -3.4461665945830555       ,   -3.5073991335764800     
  0.44000000000000000       ,   -3.4063142742225696       ,   -3.4865507877844997     
  0.46000000000000002       ,   -3.3484625871791920       ,   -3.4494346977350934     
  0.48000000000000004       ,   -3.2763687651935385       ,   -3.3988421739497534     
  0.50000000000000000       ,   -3.1941337426636092       ,   -3.3378878576866762     
  0.52000000000000002       ,   -3.1060393557671717       ,   -3.2698878047007032     
  0.54000000000000004       ,   -3.0163824548297296       ,   -3.1982334906238163     
  0.56000000000000005       ,   -2.9293122318717324       ,   -3.1262664114902443     
  0.58000000000000007       ,   -2.8486768619690896       ,   -3.0571578575984604     
  0.59999999999999998       ,   -2.7778851224998995       ,   -2.9937981742813107     
  0.62000000000000000       ,   -2.7197880072515015       ,   -2.9386994011231984     
  0.64000000000000001       ,   -2.6765845195403761       ,   -2.8939146194456886     
  0.66000000000000003       ,   -2.6497548437631746       ,   -2.8609766593203436     
  0.68000000000000005       ,   -2.6400229975871441       ,   -2.8408580489904964     
  0.70000000000000007       ,   -2.6473499007941119       ,   -2.8339532615367844     
  0.72000000000000008       ,   -2.6709566074313495       ,   -2.8400834579729239     
  0.73999999999999999       ,   -2.7093762817340918       ,   -2.8585230754546935     
  0.76000000000000001       ,   -2.7605324003172886       ,   -2.8880467960808818     
  0.78000000000000003       ,   -2.8218396753901267       ,   -2.9269946862012159     
  0.80000000000000004       ,   -2.8903233535740376       ,   -2.9733526455998351     
  0.82000000000000006       ,   -2.9627518835545810       ,   -3.0248447737923354     
  0.84000000000000008       ,   -3.0357774872729419       ,   -3.0790338655279341     
  0.85999999999999999       ,   -3.1060789295138700       ,   -3.1334260025033478     
  0.88000000000000000       ,   -3.1705007667375980       ,   -3.1855751204337008     
  0.90000000000000002       ,   -3.2261835660892184       ,   -3.2331835010216556     
  0.92000000000000004       ,   -3.2706800092025863       ,   -3.2741943619788589     
  0.94000000000000006       ,   -3.3020524139254879       ,   -3.3068730842333069     
  0.96000000000000008       ,   -3.3189479942040681       ,   -3.3298741076514244     
  0.97999999999999998       ,   -3.3206491014861244       ,   -3.3422911242509419     
   1.0000000000000000       ,   -3.3070967125260733       ,   -3.3436888764835451     
   1.0200000000000000       ,   -3.2788865072933286       ,   -3.3341156004859003     
   1.0400000000000000       ,   -3.2372379738488255       ,   -3.3140959113592112     
   1.0600000000000001       ,   -3.1839380414766731       ,   -3.2846046801642568     
   1.0800000000000001       ,   -3.1212617375138141       ,   -3.2470231716844173     
   1.1000000000000001       ,   -3.0518732488740534       ,   -3.2030793711393182     
   1.1200000000000001       ,   -2.9787115125392165       ,   -3.1547750027213595     
   1.1400000000000001       ,   -2.9048650325646292       ,   -3.1043022125381610     
   1.1600000000000001       ,   -2.8334410036764863       ,   -3.0539532371374039     
   1.1799999999999999       ,   -2.7674340003111322       ,   -3.0060265950842329     
   1.2000000000000000       ,   -2.7095994601123614       ,   -2.9627334171716835     
   1.2200000000000000       ,   -2.6623369558849537       ,   -2.9261074703294447     
   1.2400000000000000       ,   -2.6275878212700854       ,   -2.8979222360665062     
   1.2600000000000000       ,   -2.6067510919380430       ,   -2.8796180863153453     
   1.2800000000000000       ,   -2.6006209715392781       ,   -2.8722421723996616     
   1.3000000000000000       ,   -2.6093481612545539       ,   -2.8764031250032231     
   1.3200000000000001       ,   -2.6324264390667578       ,   -2.8922420760860730     
   1.3400000000000001       ,   -2.6687048781989144       ,   -2.9194208814977491     
   1.3600000000000001       ,   -2.7164250931649803       ,   -2.9571277706457297     
   1.3800000000000001       ,   -2.7732819358950080       ,   -3.0041000022879669     
   1.4000000000000001       ,   -2.8365051708978246       ,   -3.0586624878702113     
   1.4200000000000002       ,   -2.9029588715596439       ,   -3.1187807786497395     
   1.4399999999999999       ,   -2.9692546289564938       ,   -3.1821263203989103     
   1.4600000000000000       ,   -3.0318741737400585       ,   -3.2461514767251560     
   1.4800000000000000       ,   -3.0872966978765342       ,   -3.3081715220406074     
   1.5000000000000000       ,   -3.1321260361945957       ,   -3.3654506167175087     
   1.5200000000000000       ,   -3.1632129302340308       ,   -3.4152887041679074     
   1.5400000000000000       ,   -3.1777678436677332       ,   -3.4551063120795718     
   1.5600000000000001       ,   -3.1734602172802697       ,   -3.4825243929411287     
   1.5800000000000001       ,   -3.1485006231863819       ,   -3.4954365932584537     
   1.6000000000000001       ,   -3.1017029779573004       ,   -3.4920716837675418     
   1.6200000000000001       ,   -3.0325247731777654       ,   -3.4710442986761145     
   1.6400000000000001       ,   -2.9410841468097138       ,   -3.4313926023380641     
   1.6600000000000001       ,   -2.8281535146144328       ,   -3.3726020070372518     
   1.6800000000000002       ,   -2.6951303721415001       ,   -3.2946145852496933     
   1.7000000000000000       ,   -2.5439867295506806       ,   -3.1978243335011944     
   1.7200000000000000       ,   -2.3771994210620062       ,   -3.0830589333030534     
   1.7400000000000000       ,   -2.1976642088292220       ,   -2.9515490998813867     
   1.7600000000000000       ,   -2.0085971527443247       ,   -2.8048869961139307     
   1.7800000000000000       ,   -1.8134271238195754       ,   -2.6449755047516379     
   1.8000000000000000       ,   -1.6156835862199652       ,   -2.4739703874411174     
   1.8200000000000001       ,   -1.4188838551734981       ,   -2.2942175086635159     
   1.8400000000000001       ,   -1.2264239550374538       ,   -2.1081873645306808     
   1.8600000000000001       ,   -1.0414769605191703       ,   -1.9184091321238139     
   1.8800000000000001       ,  -0.86690231742746449       ,   -1.7274063498380066     
   1.9000000000000001       ,  -0.70516912593066439       ,   -1.5376361612075651     
   1.9200000000000002       ,  -0.55829575240735796       ,   -1.3514338147478919     
   1.9399999999999999       ,  -0.42780744257434944       ,   -1.1709638233371609     
   1.9600000000000000       ,  -0.31471286816282135       ,  -0.99817886288271873     
   1.9800000000000000       ,  -0.21949978276117896       ,  -0.83478714653886543     
   2.0000000000000000       ,  -0.14214922031323510       ,  -0.68222866270997651     
   2.0200000000000000       ,   -8.2166971645298292E-002  ,  -0.54166032704656208     
   2.0400000000000000       ,   -3.8630447331762921E-002  ,  -0.41394978398484483     
   2.0600000000000001       ,   -1.0248502713029356E-002  ,  -0.29967731371936801     
   2.0800000000000001       ,    4.5686179507059459E-003  ,  -0.19914506527713693     
   2.1000000000000001       ,    7.6323523930259480E-003  ,  -0.11239265251407365     
   2.1200000000000001       ,    8.9519568635363245E-004  ,   -3.9218021595925016E-002
   2.1400000000000001       ,   -1.3630314034727430E-002  ,    2.0797572719382259E-002
   2.1600000000000001       ,   -3.3949812257828040E-002  ,    6.8261660221928006E-002
   2.1800000000000002       ,   -5.8159585194925083E-002  ,   0.10394085973498343     
   2.2000000000000002       ,   -8.4510723130905352E-002  ,   0.12873045484083254     
   2.2200000000000002       ,  -0.11146281797684120       ,   0.14362418097071752     
   2.2400000000000002       ,  -0.13772559762287787       ,   0.14968501583747779     
   2.2600000000000002       ,  -0.16228746249775561       ,   0.14801759891449368     
   2.2800000000000002       ,  -0.18443048495826539       ,   0.13974273182225916     
   2.3000000000000003       ,  -0.20373202366733717       ,   0.12597424040754701     
   2.3200000000000003       ,  -0.22005366769765608       ,   0.10779832056867829     
   2.3399999999999999       ,  -0.23351873531825051       ,    8.6255351845499900E-002
   2.3599999999999999       ,  -0.24447998972812263       ,    6.2324052177258282E-002
   2.3799999999999999       ,  -0.25347958151295463       ,    3.6907768820256037E-002
   2.3999999999999999       ,  -0.26120347277086364       ,    1.0822656849521490E-002
   2.4199999999999999       ,  -0.26843273292688924       ,   -1.5212511650531583E-002
   2.4399999999999999       ,  -0.27599411851970562       ,   -4.0585139481339447E-002
   2.4600000000000000       ,  -0.28471226104558167       ,   -6.4796374406888929E-002
   2.4800000000000000       ,  -0.29536559549717689       ,   -8.7467555978431755E-002
   2.5000000000000000       ,  -0.30864787920951220       ,  -0.10834554249196500     
   2.5200000000000000       ,  -0.32513679155618480       ,  -0.12730681789929499     
   2.5400000000000000       ,  -0.34527068856535276       ,  -0.14436017541914953     
   2.5600000000000001       ,  -0.36933413351141853       ,  -0.15964768097954990     
   2.5800000000000001       ,  -0.39745235710320054       ,  -0.17344354402287743     
   2.6000000000000001       ,  -0.42959434139665348       ,  -0.18615047327057524     
   2.6200000000000001       ,  -0.46558379160664576       ,  -0.19829307706864027     
   2.6400000000000001       ,  -0.50511687944668604       ,  -0.21050788646941904     
   2.6600000000000001       ,  -0.54778532774938138       ,  -0.22352963675919332     
   2.6800000000000002       ,  -0.59310317281975744       ,  -0.23817353998228952     
   2.7000000000000002       ,  -0.64053539820204108       ,  -0.25531341507858668     
   2.7200000000000002       ,  -0.68952658688932267       ,  -0.27585570917921631     
   2.7400000000000002       ,  -0.73952778948805309       ,  -0.30070963687765184     
   2.7600000000000002       ,  -0.79001994989411539       ,  -0.33075387549837759     
   2.7800000000000002       ,  -0.84053245968608969       ,  -0.36680047357719248     
   2.8000000000000003       ,  -0.89065571574188729       ,  -0.40955684591368768     
   2.8200000000000003       ,  -0.94004691716065136       ,  -0.45958693005312007     
   2.8399999999999999       ,  -0.98842873934271280       ,  -0.51727275428161501     
   2.8599999999999999       ,   -1.0355809451018974       ,  -0.58277780511584476     
   2.8799999999999999       ,   -1.0813254140656654       ,  -0.65601367290203938     
   2.8999999999999999       ,   -1.1255054714841328       ,  -0.73661148923382935     
   2.9199999999999999       ,   -1.1679607560120597       ,  -0.82389964330460141     
   2.9399999999999999       ,   -1.2084991650256434       ,  -0.91688917239219558     
   2.9600000000000000       ,   -1.2468676402738057       ,   -1.0142680635903392     
   2.9800000000000000       ,   -1.2827236942426334       ,   -1.1144054817680820     
   3.0000000000000000       ,   -1.3156096206013803       ,   -1.2153666576613973     
   3.0200000000000000       ,   -1.3449312769147725       ,   -1.3149388379735283     
   3.0400000000000000       ,   -1.3699431753958504       ,   -1.4106683270307270     
   3.0600000000000001       ,   -1.3897413732974808       ,   -1.4999082498485112     
   3.0800000000000001       ,   -1.4032653283566130       ,   -1.5798762541719076     
   3.1000000000000001       ,   -1.4093094901618617       ,   -1.6477209601748832     
   3.1200000000000001       ,   -1.4065449523677298       ,   -1.7005955776649482     
   3.1400000000000001       ,   -1.3935510128611048       ,   -1.7357367583905940     
   3.1600000000000001       ,   -1.3688560005637340       ,   -1.7505464511663513     
   3.1800000000000002       ,   -1.3309862505955481       ,   -1.7426742943196492     
   3.2000000000000002       ,   -1.2785216659343006       ,   -1.7100979256168334     
   3.2200000000000002       ,   -1.2101559142600853       ,   -1.6511985238416287     
   3.2400000000000002       ,   -1.1247589920910550       ,   -1.5648289249061247     
   3.2600000000000002       ,   -1.0214396604263896       ,   -1.4503717815697430     
   3.2800000000000002       ,  -0.89960512912919177       ,   -1.3077854585711606     
   3.3000000000000003       ,  -0.75901534923717073       ,   -1.1376356694634984     
   3.3200000000000003       ,  -0.59982936674013743       ,  -0.94111125916598537     
   3.3400000000000003       ,  -0.42264139679222507       ,  -0.72002300518647910     
   3.3599999999999999       ,  -0.22850458774511004       ,  -0.47678483549658851     
   3.3799999999999999       ,   -1.8940849143948554E-002  ,  -0.21437742443163882     
   3.3999999999999999       ,   0.20406439789245112       ,    6.3705289931843587E-002
   3.4199999999999999       ,   0.43808314407297827       ,   0.35352554359374311     
   3.4399999999999999       ,   0.68028139996831516       ,   0.65078545996617099     
   3.4600000000000000       ,   0.92747089752308443       ,   0.95092284714796127     
   3.4800000000000000       ,    1.1761746994288622       ,    1.2492164397970207     
   3.5000000000000000       ,    1.4227049680838604       ,    1.5408975803181282     
   3.5200000000000000       ,    1.6632506382903909       ,    1.8212650649006101     
   3.5400000000000000       ,    1.8939723066706107       ,    2.0857997190865731     
   3.5600000000000001       ,    2.1111013144806980       ,    2.3302752227287167     
   3.5800000000000001       ,    2.3110397739009914       ,    2.5508617788825694     
   3.6000000000000001       ,    2.4904581815252742       ,    2.7442194144269560     
   3.6200000000000001       ,    2.6463872824764025       ,    2.9075780066270123     
   3.6400000000000001       ,    2.7763009951352045       ,    3.0388015397635368     
   3.6600000000000001       ,    2.8781874756065706       ,    3.1364345956926218     
   3.6800000000000002       ,    2.9506057835459583       ,    3.1997296546213714     
   3.7000000000000002       ,    2.9927260930305266       ,    3.2286544074680119     
   3.7200000000000002       ,    3.0043519559244687       ,    3.2238789367656633     
   3.7400000000000002       ,    2.9859237494524096       ,    3.1867432857146745     
   3.7600000000000002       ,    2.9385031007410904       ,    3.1192065808180147     
   3.7800000000000002       ,    2.8637387536380832       ,    3.0237794791724091     
   3.8000000000000003       ,    2.7638150013336111       ,    2.9034422549472798     
   3.8200000000000003       ,    2.6413844268481537       ,    2.7615513011131219     
   3.8400000000000003       ,    2.4994872484531165       ,    2.6017371853318534     
   3.8599999999999999       ,    2.3414600371718453       ,    2.4277976499931344     
   3.8799999999999999       ,    2.1708369405856267       ,    2.2435890767392683     
   3.8999999999999999       ,    1.9912467972033054       ,    2.0529199410414316     
   3.9199999999999999       ,    1.8063096492057689       ,    1.8594496627420449     
   3.9399999999999999       ,    1.6195361539788760       ,    1.6665960189096354     
   3.9600000000000000       ,    1.4342332571788818       ,    1.4774539353106724     
   3.9800000000000000       ,    1.2534192279210443       ,    1.2947280258619831     
   4.0000000000000000       ,    1.0797507806986095       ,    1.1206807227679048     
   4.0199999999999996       ,   0.91546453391073490       ,   0.95709725378739152     
   4.0400000000000000       ,   0.76233450030005234       ,   0.80526809949391664     
   4.0599999999999996       ,   0.62164669211805901       ,   0.66598892605574544     
   4.0800000000000001       ,   0.49419127754737030       ,   0.53957736192488959     
   4.0999999999999996       ,   0.38027207010136027       ,   0.42590539328285754     
   4.1199999999999992       ,   0.27973249484639184       ,   0.32444561510084602     
   4.1399999999999997       ,   0.19199657895725908       ,   0.23432911188899483     
   4.1599999999999993       ,   0.11612298209850003       ,   0.15441237124356241     
   4.1799999999999997       ,    5.0869634473067929E-002  ,    8.3350367089000746E-002
   4.1999999999999993       ,   -5.2337963687981472E-003  ,    1.9672796832379384E-002
   4.2199999999999998       ,   -5.3808622330303528E-002  ,   -3.8139578193353153E-002
   4.2399999999999993       ,   -9.6548159958203275E-002  ,   -9.1581456927328470E-002
   4.2599999999999998       ,  -0.13514017728914127       ,  -0.14205515999371562     
   4.2799999999999994       ,  -0.17119374228282186       ,  -0.19081090209504098     
   4.2999999999999998       ,  -0.20617320455850999       ,  -0.23889726004837400     
   4.3199999999999994       ,  -0.24134169052768578       ,  -0.28712345828048275     
   4.3399999999999999       ,  -0.27771605247174125       ,  -0.33603457627407024     
   4.3599999999999994       ,  -0.31603470349521023       ,  -0.38590023184847422     
   4.3799999999999999       ,  -0.35673921400188990       ,  -0.43671673253006971     
   4.3999999999999995       ,  -0.39996996447320682       ,  -0.48822213706226203     
   4.4199999999999999       ,  -0.44557556767291523       ,  -0.53992315204808861     
   4.4399999999999995       ,  -0.49313521449984093       ,  -0.59113232495860180     
   4.4600000000000000       ,  -0.54199258388887517       ,  -0.64101360206019853     
   4.4799999999999995       ,  -0.59129950863641056       ,  -0.68863401293966309     
   4.5000000000000000       ,  -0.64006722310360220       ,  -0.73301903334731056     
   4.5199999999999996       ,  -0.68722274914142245       ,  -0.77320907211705636     
   4.5400000000000000       ,  -0.73166781288518279       ,  -0.80831452876622212     
   4.5599999999999996       ,  -0.77233763241870090       ,  -0.83756697448992390     
   4.5800000000000001       ,  -0.80825697522142614       ,  -0.86036421486918735     
