r(A) ,   X_ray-calc  ,   X_ray_exp_renorm
   2.0000000000000000E-002  ,   -2.5431025006107824       ,   -4.0756742278357461     
   4.0000000000000001E-002  ,   -2.5559934768732684       ,   -4.0942319126341715     
   5.9999999999999998E-002  ,   -2.5770263811419931       ,   -4.1244949637853274     
   8.0000000000000002E-002  ,   -2.6055399445829828       ,   -4.1654888111581645     
  0.10000000000000001       ,   -2.6406413835402143       ,   -4.2158982306407218     
  0.12000000000000001       ,   -2.6812379277016323       ,   -4.2741143237679680     
  0.13999999999999999       ,   -2.7260753259476669       ,   -4.3382918781344939     
  0.16000000000000000       ,   -2.7737819127904051       ,   -4.4064149859495068     
  0.17999999999999999       ,   -2.8229166158367018       ,   -4.4763684953486038     
  0.19999999999999998       ,   -2.8720191429359487       ,   -4.5460126575154423     
  0.22000000000000000       ,   -2.9196605118486740       ,   -4.6132582201355046     
  0.23999999999999999       ,   -2.9644920781456228       ,   -4.6761392082986326     
  0.26000000000000001       ,   -3.0052912787698851       ,   -4.7328807278597766     
  0.28000000000000003       ,   -3.0410024368174766       ,   -4.7819593197332768     
  0.30000000000000004       ,   -3.0707711626594216       ,   -4.8221536791361652     
  0.32000000000000001       ,   -3.0939711302767510       ,   -4.8525839204463406     
  0.34000000000000002       ,   -3.1102222963071178       ,   -4.8727380020959323     
  0.36000000000000004       ,   -3.1193999518368294       ,   -4.8824844102591172     
  0.38000000000000000       ,   -3.1216343411811391       ,   -4.8820707166378723     
  0.40000000000000002       ,   -3.1173009347612739       ,   -4.8721081548426470     
  0.42000000000000004       ,   -3.1070017913951262       ,   -4.8535428817414692     
  0.44000000000000000       ,   -3.0915387757681096       ,   -4.8276150850754771     
  0.46000000000000002       ,   -3.0718796971514157       ,   -4.7958075480722835     
  0.48000000000000004       ,   -3.0491186943706214       ,   -4.7597856689629792     
  0.50000000000000000       ,   -3.0244323999822322       ,   -4.7213312438879491     
  0.52000000000000002       ,   -2.9990335659345213       ,   -4.6822725442576232     
  0.54000000000000004       ,   -2.9741239182544441       ,   -4.6444133461959778     
  0.56000000000000005       ,   -2.9508480265449131       ,   -4.6094635958667780     
  0.58000000000000007       ,   -2.9302499248668341       ,   -4.5789743197072843     
  0.59999999999999998       ,   -2.9132341060433791       ,   -4.5542792161197596     
  0.62000000000000000       ,   -2.9005323361476552       ,   -4.5364451019169572     
  0.64000000000000001       ,   -2.8926775067865154       ,   -4.5262330430884212     
  0.66000000000000003       ,   -2.8899854686489150       ,   -4.5240715885281384     
  0.68000000000000005       ,   -2.8925454811908473       ,   -4.5300430629895478     
  0.70000000000000007       ,   -2.9002195820820682       ,   -4.5438833792898103     
  0.72000000000000008       ,   -2.9126508387518180       ,   -4.5649953184446401     
  0.73999999999999999       ,   -2.9292801059772384       ,   -4.5924747191912214     
  0.76000000000000001       ,   -2.9493705907299348       ,   -4.6251485342011724     
  0.78000000000000003       ,   -2.9720392305546972       ,   -4.6616232671665649     
  0.80000000000000004       ,   -2.9962936356221390       ,   -4.7003419191709792     
  0.82000000000000006       ,   -3.0210731367785901       ,   -4.7396472583977767     
  0.84000000000000008       ,   -3.0452923300534240       ,   -4.7778489955725787     
  0.85999999999999999       ,   -3.0678854176715622       ,   -4.8132923067170630     
  0.88000000000000000       ,   -3.0878496198134857       ,   -4.8444250994887970     
  0.90000000000000002       ,   -3.1042859708735562       ,   -4.8698614706912862     
  0.92000000000000004       ,   -3.1164359170390754       ,   -4.8884389479520491     
  0.94000000000000006       ,   -3.1237122945141720       ,   -4.8992673421060040     
  0.96000000000000008       ,   -3.1257234833024139       ,   -4.9017673492965876     
  0.97999999999999998       ,   -3.1222897918383401       ,   -4.8956974211826418     
   1.0000000000000000       ,   -3.1134514229845376       ,   -4.8811678535268745     
   1.0200000000000000       ,   -3.0994676908025061       ,   -4.8586415116488508     
   1.0400000000000000       ,   -3.0808074880513963       ,   -4.8289210983871085     
   1.0600000000000001       ,   -3.0581313341935465       ,   -4.7931233584463264     
   1.0800000000000001       ,   -3.0322656505132026       ,   -4.7526410845762204     
   1.1000000000000001       ,   -3.0041702010653908       ,   -4.7090942290169879     
   1.1200000000000001       ,   -2.9748998948399668       ,   -4.6642718125494689     
   1.1400000000000001       ,   -2.9455623564103104       ,   -4.6200666497865015     
   1.1600000000000001       ,   -2.9172728318180434       ,   -4.5784051619565815     
   1.1799999999999999       ,   -2.8911080979008159       ,   -4.5411747191068876     
   1.2000000000000000       ,   -2.8680610832582558       ,   -4.5101510372106066     
   1.2200000000000000       ,   -2.8489978864284011       ,   -4.4869281501461415     
   1.2400000000000000       ,   -2.8346187927832855       ,   -4.4728533832037520     
   1.2600000000000000       ,   -2.8254247495727394       ,   -4.4689695780809702     
   1.2800000000000000       ,   -2.8216905639747432       ,   -4.4759665665856616     
   1.3000000000000000       ,   -2.8234458493541630       ,   -4.4941435713950835     
   1.3200000000000001       ,   -2.8304644691783172       ,   -4.5233838393287469     
   1.3400000000000001       ,   -2.8422629264115189       ,   -4.5631423994801672     
   1.3600000000000001       ,   -2.8581078297848301       ,   -4.6124474001725204     
   1.3800000000000001       ,   -2.8770322486069699       ,   -4.6699150306026738     
   1.4000000000000001       ,   -2.8978604562506285       ,   -4.7337775907692157     
   1.4200000000000002       ,   -2.9192402701904796       ,   -4.8019238518441183     
   1.4399999999999999       ,   -2.9396819337396307       ,   -4.8719504624642926     
   1.4600000000000000       ,   -2.9576022604991890       ,   -4.9412228168492955     
   1.4800000000000000       ,   -2.9713725845637851       ,   -5.0069435185955280     
   1.5000000000000000       ,   -2.9793689335219802       ,   -5.0662263575762063     
   1.5200000000000000       ,   -2.9800227711189953       ,   -5.1161735722046942     
   1.5400000000000000       ,   -2.9718706439179812       ,   -5.1539540983796881     
   1.5600000000000001       ,   -2.9536011111283371       ,   -5.1768805100557076     
   1.5800000000000001       ,   -2.9240974366442232       ,   -5.1824824323231207     
   1.6000000000000001       ,   -2.8824746730082285       ,   -5.1685743514834348     
   1.6200000000000001       ,   -2.8281099625063302       ,   -5.1333159510632393     
   1.6400000000000001       ,   -2.7606651134414975       ,   -5.0752633593825731     
   1.6600000000000001       ,   -2.6801007711725968       ,   -4.9934099931043345     
   1.6800000000000002       ,   -2.5866817842335883       ,   -4.8872160110246714     
   1.7000000000000000       ,   -2.4809736557678304       ,   -4.7566257415290574     
   1.7200000000000000       ,   -2.3638302595051677       ,   -4.6020728037963616     
   1.7400000000000000       ,   -2.2363732777032514       ,   -4.4244729954375339     
   1.7600000000000000       ,   -2.0999640765928085       ,   -4.2252053569471562     
   1.7800000000000000       ,   -1.9561689645502667       ,   -4.0060821363070476     
   1.8000000000000000       ,   -1.8067189723022574       ,   -3.7693086568331977     
   1.8200000000000001       ,   -1.6534654471983261       ,   -3.5174343309852305     
   1.8400000000000001       ,   -1.4983328608121538       ,   -3.2532962571754429     
   1.8600000000000001       ,   -1.3432702883829450       ,   -2.9799569822349139     
   1.8800000000000001       ,   -1.1902030291559045       ,   -2.7006381075445756     
   1.9000000000000001       ,   -1.0409857995039058       ,   -2.4186514620894086     
   1.9200000000000002       ,  -0.89735884840905678       ,   -2.1373295626303586     
   1.9399999999999999       ,  -0.76090822153330184       ,   -1.8599570330240682     
   1.9600000000000000       ,  -0.63303124107047282       ,   -1.5897045658707385     
   1.9800000000000000       ,  -0.51490808025860590       ,   -1.3295668854841047     
   2.0000000000000000       ,  -0.40748010103176685       ,   -1.0823060176628976     
   2.0200000000000000       ,  -0.31143539849356788       ,  -0.85040099527930035     
   2.0400000000000000       ,  -0.22720176459113289       ,  -0.63600493576077088     
   2.0600000000000001       ,  -0.15494705336318745       ,  -0.44091022343985559     
   2.0800000000000001       ,   -9.4586708871658903E-002  ,  -0.26652232241050816     
   2.1000000000000001       ,   -4.5798011231852780E-002  ,  -0.11384253931322851     
   2.1200000000000001       ,   -8.0404120308136973E-003  ,    1.6540144978979245E-002
   2.1400000000000001       ,    1.9418827142029794E-002  ,   0.12444824664251870     
   2.1600000000000001       ,    3.7474606481164283E-002  ,   0.21010620324847776     
   2.1800000000000002       ,    4.7150577607390456E-002  ,   0.27412246470598045     
   2.2000000000000002       ,    4.9563418294581940E-002  ,   0.31746381159335979     
   2.2200000000000002       ,    4.5885884635672607E-002  ,   0.34142259202412223     
   2.2400000000000002       ,    3.7309724599368363E-002  ,   0.34757768150261359     
   2.2600000000000002       ,    2.5009497095313572E-002  ,   0.33775006674825958     
   2.2800000000000002       ,    1.0108272430220227E-002  ,   0.31395403473635330     
   2.3000000000000003       ,   -6.3539028117365710E-003  ,   0.27834501285613295     
   2.3200000000000003       ,   -2.3448006533598600E-002  ,   0.23316515572775484     
   2.3399999999999999       ,   -4.0379866228717309E-002  ,   0.18068780929572101     
   2.3599999999999999       ,   -5.6509306356053106E-002  ,   0.12316200351986356     
   2.3799999999999999       ,   -7.1364260897217119E-002  ,    6.2758131195821493E-002
   2.3999999999999999       ,   -8.4649640038085366E-002  ,    1.5159616945615711E-003
   2.4199999999999999       ,   -9.6250882693606321E-002  ,   -5.8703886062538471E-002
   2.4399999999999999       ,  -0.10623226229341023       ,  -0.11626392832196100     
   2.4600000000000000       ,  -0.11483013864555124       ,  -0.16978823506279525     
   2.4800000000000000       ,  -0.12244146123851272       ,  -0.21819433701217961     
   2.5000000000000000       ,  -0.12960792716853325       ,  -0.26071777452899542     
   2.5200000000000000       ,  -0.13699627882819881       ,  -0.29692856180657856     
   2.5400000000000000       ,  -0.14537529206696981       ,  -0.32673898150439074     
   2.5600000000000001       ,  -0.15559005484341751       ,  -0.35040228799312118     
   2.5800000000000001       ,  -0.16853417006131585       ,  -0.36850208090768455     
   2.6000000000000001       ,  -0.18512053536706696       ,  -0.38193231277976275     
   2.6200000000000001       ,  -0.20625135853971668       ,  -0.39186811231966168     
   2.6400000000000001       ,  -0.23278806127241794       ,  -0.39972783457592809     
   2.6600000000000001       ,  -0.26552170824456600       ,  -0.40712698585344276     
   2.6800000000000002       ,  -0.30514457400202366       ,  -0.41582490911331421     
   2.7000000000000002       ,  -0.35222342875613921       ,  -0.42766534799059808     
   2.7200000000000002       ,  -0.40717508703403554       ,  -0.44451222729295442     
   2.7400000000000002       ,  -0.47024472115924032       ,  -0.46818218721825011     
   2.7600000000000002       ,  -0.54148739552207237       ,  -0.50037557974798552     
   2.7800000000000002       ,  -0.62075322792990562       ,  -0.54260777109710467     
   2.8000000000000003       ,  -0.70767653115309570       ,  -0.59614268658093394     
   2.8200000000000003       ,  -0.80166923101727650       ,  -0.66193057747145900     
   2.8399999999999999       ,  -0.90191879678276599       ,  -0.74055197818040863     
   2.8599999999999999       ,   -1.0073908547520471       ,  -0.83216975270009630     
   2.8799999999999999       ,   -1.1168365867082009       ,  -0.93649099964446647     
   2.8999999999999999       ,   -1.2288049406512063       ,   -1.0527403953836199     
   2.9199999999999999       ,   -1.3416596022856100       ,   -1.1796463066561427     
   2.9399999999999999       ,   -1.4536005920071937       ,   -1.3154407018318943     
   2.9600000000000000       ,   -1.5626902642582785       ,   -1.4578735399912823     
   2.9800000000000000       ,   -1.6668833949813959       ,   -1.6042419275498194     
   3.0000000000000000       ,   -1.7640609498301245       ,   -1.7514339135329673     
   3.0200000000000000       ,   -1.8520670325536810       ,   -1.8959863586540293     
   3.0400000000000000       ,   -1.9287484217256352       ,   -2.0341558731996474     
   3.0600000000000001       ,   -1.9919960172652569       ,   -2.1620013883796361     
   3.0800000000000001       ,   -2.0397874388186179       ,   -2.2754765196491014     
   3.1000000000000001       ,   -2.0702299490298408       ,   -2.3705295128566566     
   3.1200000000000001       ,   -2.0816028191189790       ,   -2.4432082485881983     
   3.1400000000000001       ,   -2.0723982150053120       ,   -2.4897675292867865     
   3.1600000000000001       ,   -2.0413596622842483       ,   -2.5067756985156722     
   3.1800000000000002       ,   -1.9875171501395426       ,   -2.4912175508605805     
   3.2000000000000002       ,   -1.9102179597146236       ,   -2.4405904906930096     
   3.2200000000000002       ,   -1.8091523529151112       ,   -2.3529909917578520     
   3.2400000000000002       ,   -1.6843733336657565       ,   -2.2271885976533552     
   3.2600000000000002       ,   -1.5363097950672604       ,   -2.0626849828978302     
   3.2800000000000002       ,   -1.3657724915659761       ,   -1.8597559593754247     
   3.3000000000000003       ,   -1.1739524231206382       ,   -1.6194747543747541     
   3.3200000000000003       ,  -0.96241138547299920       ,   -1.3437153921564930     
   3.3400000000000003       ,  -0.73306462319164456       ,   -1.0351355664447235     
   3.3599999999999999       ,  -0.48815571557335047       ,  -0.69713897976944617     
   3.3799999999999999       ,  -0.23022402451451224       ,  -0.33381772895577999     
   3.3999999999999999       ,    3.7934767630304775E-002  ,    5.0124084947964900E-002
   3.4199999999999999       ,   0.31331430945727212       ,   0.44946376891957879     
   3.4399999999999999       ,   0.59274852005334311       ,   0.85856818699117343     
   3.4600000000000000       ,   0.87296675353321151       ,    1.2715138898581901     
   3.4800000000000000       ,    1.1506519875563490       ,    1.6822160757225504     
   3.5000000000000000       ,    1.4225007262104723       ,    2.0845629316556979     
   3.5200000000000000       ,    1.6852832327459102       ,    2.4725517064573777     
   3.5400000000000000       ,    1.9359026698978281       ,    2.8404227787146699     
   3.5600000000000001       ,    2.1714517272915947       ,    3.1827880118761893     
   3.5800000000000001       ,    2.3892653578097520       ,    3.4947498321487953     
   3.6000000000000001       ,    2.5869683276146556       ,    3.7720077214733441     
   3.6200000000000001       ,    2.7625164062269287       ,    4.0109491794618961     
   3.6400000000000001       ,    2.9142301807838691       ,    4.2087226640500832     
   3.6600000000000001       ,    3.0408206681988448       ,    4.3632905564879758     
   3.6800000000000002       ,    3.1414061151133046       ,    4.4734607950689380     
   3.7000000000000002       ,    3.2155196119777170       ,    4.5388964643076557     
   3.7200000000000002       ,    3.2631073972164839       ,    4.5601032911384989     
   3.7400000000000002       ,    3.2845179825559234       ,    4.5383956652359618     
   3.7600000000000002       ,    3.2804824832450628       ,    4.4758424447530096     
   3.7800000000000002       ,    3.2520867790588732       ,    4.3751944102753439     
   3.8000000000000003       ,    3.2007363558696387       ,    4.2397957686434511     
   3.8200000000000003       ,    3.1281148759513271       ,    4.0734825666678454     
   3.8400000000000003       ,    3.0361376915700471       ,    3.8804712375720785     
   3.8599999999999999       ,    2.9269016453564349       ,    3.6652407584635340     
   3.8799999999999999       ,    2.8026325882178083       ,    3.4324120371954172     
   3.8999999999999999       ,    2.6656320882753595       ,    3.1866281676006896     
   3.9199999999999999       ,    2.5182248011452657       ,    2.9324390933707498     
   3.9399999999999999       ,    2.3627079230140549       ,    2.6741940070938210     
   3.9600000000000000       ,    2.2013040551380616       ,    2.4159444904372172     
   3.9800000000000000       ,    2.0361186748739337       ,    2.1613609861301679     
   4.0000000000000000       ,    1.8691032387686195       ,    1.9136646975150262     
   4.0199999999999996       ,    1.7020247434802969       ,    1.6755764549250098     
   4.0400000000000000       ,    1.5364423472751636       ,    1.4492834900023845     
   4.0599999999999996       ,    1.3736914162374403       ,    1.2364244405999263     
   4.0800000000000001       ,    1.2148751133442619       ,    1.0380922919538982     
   4.0999999999999996       ,    1.0608634036104609       ,   0.85485436597349040     
   4.1199999999999992       ,   0.91229911293380428       ,   0.68678792031146563     
   4.1399999999999997       ,   0.76961046002142219       ,   0.53352943113952478     
   4.1599999999999993       ,   0.63302928713427009       ,   0.39433522456975623     
   4.1799999999999997       ,   0.50261405270497783       ,   0.26815080472830100     
   4.1999999999999993       ,   0.37827652236750070       ,   0.15368601139161073     
   4.2199999999999998       ,   0.25981100844965432       ,    4.9493032801129544E-002
   4.2399999999999993       ,   0.14692496392092619       ,   -4.5955698269614244E-002
   4.2599999999999998       ,    3.9269736005775976E-002  ,  -0.13419258701280595     
   4.2799999999999994       ,   -6.3529673548473442E-002  ,  -0.21668558773833166     
   4.2999999999999998       ,  -0.16184691247029157       ,  -0.29477689012538610     
   4.3199999999999994       ,  -0.25602959843189049       ,  -0.36963154443007551     
   4.3399999999999999       ,  -0.34637845781671833       ,  -0.44219754369383618     
   4.3599999999999994       ,  -0.43313090865647624       ,  -0.51317838981405550     
   4.3799999999999999       ,  -0.51644951898873459       ,  -0.58301865307120326     
   4.3999999999999995       ,  -0.59641556613163105       ,  -0.65190251133348243     
   4.4199999999999999       ,  -0.67302771331741162       ,  -0.71976474558794079     
   4.4399999999999995       ,  -0.74620561562140308       ,  -0.78631319175663927     
   4.4600000000000000       ,  -0.81579807474178234       ,  -0.85106122248847227     
   4.4799999999999995       ,  -0.88159518894360744       ,  -0.91336847212069328     
   4.5000000000000000       ,  -0.94334379658096790       ,  -0.97248773587938120     
   4.5199999999999996       ,   -1.0007653942170176       ,   -1.0276157800363199     
   4.5400000000000000       ,   -1.0535756274172554       ,   -1.0779456990442167     
   4.5599999999999996       ,   -1.1015044063844859       ,   -1.1227184508147423     
   4.5800000000000001       ,   -1.1443156908857837       ,   -1.1612712907300491     
