r(A) ,   X_ray-calc  ,   X_ray_exp_renorm
   2.0000000000000000E-002  ,   -2.8715165267897560       ,   -5.8073317609338666     
   4.0000000000000001E-002  ,   -2.8898688648960507       ,   -5.7766901779439594     
   5.9999999999999998E-002  ,   -2.9194874063107288       ,   -5.7263096769496595     
   8.0000000000000002E-002  ,   -2.9589639523847673       ,   -5.6572069225935513     
  0.10000000000000001       ,   -3.0064147189218553       ,   -5.5707725555432939     
  0.12000000000000001       ,   -3.0595635064356719       ,   -5.4687394109202403     
  0.13999999999999999       ,   -3.1158423855882735       ,   -5.3531429323419468     
  0.16000000000000000       ,   -3.1725055778365276       ,   -5.2262747014082187     
  0.17999999999999999       ,   -3.2267516387720891       ,   -5.0906301661599329     
  0.19999999999999998       ,   -3.2758486858416469       ,   -4.9488517922478730     
  0.22000000000000000       ,   -3.3172572687559292       ,   -4.8036689738431262     
  0.23999999999999999       ,   -3.3487455663013153       ,   -4.6578361247540547     
  0.26000000000000001       ,   -3.3684919042279922       ,   -4.5140704213520459     
  0.28000000000000003       ,   -3.3751701127158822       ,   -4.3749906859361252     
  0.30000000000000004       ,   -3.3680139569830190       ,   -4.2430588809555241     
  0.32000000000000001       ,   -3.3468577512225854       ,   -4.1205256306797695     
  0.34000000000000002       ,   -3.3121512677346994       ,   -4.0093810978982676     
  0.36000000000000004       ,   -3.2649481380545806       ,   -3.9113124203375049     
  0.38000000000000000       ,   -3.2068680656994899       ,   -3.8276687568745920     
  0.40000000000000002       ,   -3.1400342838072395       ,   -3.7594348103608608     
  0.42000000000000004       ,   -3.0669887486487197       ,   -3.7072134858583872     
  0.44000000000000000       ,   -2.9905885172140247       ,   -3.6712181150584837     
  0.46000000000000002       ,   -2.9138875733414249       ,   -3.6512744350385780     
  0.48000000000000004       ,   -2.8400090074986046       ,   -3.6468322583834305     
  0.50000000000000000       ,   -2.7720128928930010       ,   -3.6569865185778525     
  0.52000000000000002       ,   -2.7127654160274060       ,   -3.6805071263146596     
  0.54000000000000004       ,   -2.6648148032763532       ,   -3.7158768359080110     
  0.56000000000000005       ,   -2.6302793363110482       ,   -3.7613361032305361     
  0.58000000000000007       ,   -2.6107522776846723       ,   -3.8149337240683900     
  0.59999999999999998       ,   -2.6072278523280157       ,   -3.8745818805494388     
  0.62000000000000000       ,   -2.6200515783630949       ,   -3.9381140986493235     
  0.64000000000000001       ,   -2.6488972462004963       ,   -4.0033445360689823     
  0.66000000000000003       ,   -2.6927717490436294       ,   -4.0681269802436439     
  0.68000000000000005       ,   -2.7500478157042725       ,   -4.1304119428392330     
  0.70000000000000007       ,   -2.8185235355584970       ,   -4.1883002903906617     
  0.72000000000000008       ,   -2.8955064435813105       ,   -4.2400919498512382     
  0.73999999999999999       ,   -2.9779188972818682       ,   -4.2843283703869952     
  0.76000000000000001       ,   -3.0624205702290634       ,   -4.3198276049589488     
  0.78000000000000003       ,   -3.1455431467469381       ,   -4.3457110919206219     
  0.80000000000000004       ,   -3.2238317605624154       ,   -4.3614214616270770     
  0.82000000000000006       ,   -3.2939873999381839       ,   -4.3667309584833758     
  0.84000000000000008       ,   -3.3530044173290876       ,   -4.3617403467249867     
  0.85999999999999999       ,   -3.3982974374304313       ,   -4.3468684497600014     
  0.88000000000000000       ,   -3.4278123483693950       ,   -4.3228327491096596     
  0.90000000000000002       ,   -3.4401166717968730       ,   -4.2906217309346495     
  0.92000000000000004       ,   -3.4344654147768732       ,   -4.2514599072933468     
  0.94000000000000006       ,   -3.4108394775525555       ,   -4.2067666478160151     
  0.96000000000000008       ,   -3.3699547875908409       ,   -4.1581101285621580     
  0.97999999999999998       ,   -3.3132415076415311       ,   -4.1071578328834066     
   1.0000000000000000       ,   -3.2427938763188573       ,   -4.0556251200413227     
   1.0200000000000000       ,   -3.1612924348433782       ,   -4.0052234086773062     
   1.0400000000000000       ,   -3.0719015244813246       ,   -3.9576095032938605     
   1.0600000000000001       ,   -2.9781459597656696       ,   -3.9143375237685576     
   1.0800000000000001       ,   -2.8837716510092153       ,   -3.8768147834359614     
   1.1000000000000001       ,   -2.7925956302086559       ,   -3.8462628049494261     
   1.1200000000000001       ,   -2.7083513989894015       ,   -3.8236844709939515     
   1.1400000000000001       ,   -2.6345357462220069       ,   -3.8098380862569288     
   1.1600000000000001       ,   -2.5742631662934503       ,   -3.8052188861734302     
   1.1799999999999999       ,   -2.5301337465708227       ,   -3.8100482758249172     
   1.2000000000000000       ,   -2.5041198940916196       ,   -3.8242708282959437     
   1.2200000000000000       ,   -2.4974765562169932       ,   -3.8475588250620785     
   1.2400000000000000       ,   -2.5106786859081875       ,   -3.8793238904732199     
   1.2600000000000000       ,   -2.5433886450774268       ,   -3.9187350662369851     
   1.2800000000000000       ,   -2.5944550709633578       ,   -3.9647424970511667     
   1.3000000000000000       ,   -2.6619434970401681       ,   -4.0161057608794284     
   1.3200000000000001       ,   -2.7431977705907422       ,   -4.0714257809262087     
   1.3400000000000001       ,   -2.8349300934375141       ,   -4.1291792035217076     
   1.3600000000000001       ,   -2.9333363787925695       ,   -4.1877541174196615     
   1.3800000000000001       ,   -3.0342326108696551       ,   -4.2454860241485548     
   1.4000000000000001       ,   -3.1332070548377775       ,   -4.3006930429748049     
   1.4200000000000002       ,   -3.2257825262734676       ,   -4.3517094430433350     
   1.4399999999999999       ,   -3.3075825168762001       ,   -4.3969167332563552     
   1.4600000000000000       ,   -3.3744948032468973       ,   -4.4347717001951459     
   1.4800000000000000       ,   -3.4228262447497610       ,   -4.4638309578435544     
   1.5000000000000000       ,   -3.4494428017537326       ,   -4.4827717515485244     
   1.5200000000000000       ,   -3.4518893640024695       ,   -4.4904089340158349     
   1.5400000000000000       ,   -3.4284847484077678       ,   -4.4857081949814264     
   1.5600000000000001       ,   -3.3783881758030656       ,   -4.4677957710282161     
   1.5800000000000001       ,   -3.3016346296658630       ,   -4.4359649813970030     
   1.6000000000000001       ,   -3.1991376934867661       ,   -4.3896800244927334     
   1.6200000000000001       ,   -3.0726597104644333       ,   -4.3285775246298037     
   1.6400000000000001       ,   -2.9247503607141683       ,   -4.2524663376823808     
   1.6600000000000001       ,   -2.7586559583565768       ,   -4.1613261078436379     
   1.6800000000000002       ,   -2.5782028867867726       ,   -4.0553050176485534     
   1.7000000000000000       ,   -2.3876595719756368       ,   -3.9347170935419240     
   1.7200000000000000       ,   -2.1915822031507384       ,   -3.8000393249396951     
   1.7400000000000000       ,   -1.9946500169012762       ,   -3.6519087326540931     
   1.7600000000000000       ,   -1.8014963420174281       ,   -3.4911193904784477     
   1.7800000000000000       ,   -1.6165417445300723       ,   -3.3186192700666197     
   1.8000000000000000       ,   -1.4438355112300323       ,   -3.1355066526570359     
   1.8200000000000001       ,   -1.2869113707293898       ,   -2.9430257401606608     
   1.8400000000000001       ,   -1.1486627884685752       ,   -2.7425610105243012     
   1.8600000000000001       ,   -1.0312424091882810       ,   -2.5356298049315185     
   1.8800000000000001       ,  -0.93598928813673299       ,   -2.3238726127486178     
   1.9000000000000001       ,  -0.86338648790075356       ,   -2.1090405378719557     
   1.9200000000000002       ,  -0.81305046330591990       ,   -1.8929794890289473     
   1.9399999999999999       ,  -0.78375245753958533       ,   -1.6776107362391055     
   1.9600000000000000       ,  -0.77347093505038289       ,   -1.4649076134771679     
   1.9800000000000000       ,  -0.77947292688454461       ,   -1.2568683188627789     
   2.0000000000000000       ,  -0.79842110561515345       ,   -1.0554849616880786     
   2.0200000000000000       ,  -0.82650247955195788       ,  -0.86270922176993425     
   2.0400000000000000       ,  -0.85957383357821238       ,  -0.68041521102702907     
   2.0600000000000001       ,  -0.89331847399942910       ,  -0.51036034885805459     
   2.0800000000000001       ,  -0.92340847662398284       ,  -0.35414527031353299     
   2.1000000000000001       ,  -0.94566650183839318       ,  -0.21317396766210323     
   2.1200000000000001       ,  -0.95622132977242202       ,   -8.8615510718256338E-002
   2.1400000000000001       ,  -0.95165157605780015       ,    1.8631210752463056E-002
   2.1600000000000001       ,  -0.92911255904808665       ,   0.10796823650915630     
   2.1800000000000002       ,  -0.88644197987361084       ,   0.17912331001612553     
   2.2000000000000002       ,  -0.82224091787155773       ,   0.23216729454958940     
   2.2200000000000002       ,  -0.73592760087159415       ,   0.26752299959161313     
   2.2400000000000002       ,  -0.62776244371861434       ,   0.28596440204520945     
   2.2600000000000002       ,  -0.49884391814035900       ,   0.28860552331046729     
   2.2800000000000002       ,  -0.35107588084048941       ,   0.27687855246820120     
   2.3000000000000003       ,  -0.18710800377248860       ,   0.25250117734897515     
   2.3200000000000003       ,   -1.0251882828087821E-002  ,   0.21743348631872136     
   2.3399999999999999       ,   0.17562378532117973       ,   0.17382521939127796     
   2.3599999999999999       ,   0.36621490232688875       ,   0.12395456153162690     
   2.3799999999999999       ,   0.55691599060159247       ,    7.0160066657611916E-002
   2.3999999999999999       ,   0.74296167412912217       ,    1.4767660647563761E-002
   2.4199999999999999       ,   0.91957063191156807       ,   -3.9985021050152739E-002
   2.4399999999999999       ,    1.0820871085410513       ,   -9.2024466210792230E-002
   2.4600000000000000       ,    1.2261153194053331       ,  -0.13951463591896537     
   2.4800000000000000       ,    1.3476425085326871       ,  -0.18092511276805184     
   2.5000000000000000       ,    1.4431469833946553       ,  -0.21509136155971750     
   2.5200000000000000       ,    1.5096881361472303       ,  -0.24126455403904515     
   2.5400000000000000       ,    1.5449762337557145       ,  -0.25914864994183023     
   2.5600000000000001       ,    1.5474205864652040       ,  -0.26892276686133149     
   2.5800000000000001       ,    1.5161555501565331       ,  -0.27124730294620863     
   2.6000000000000001       ,    1.4510446485149242       ,  -0.26725278705451061     
   2.6200000000000001       ,    1.3526638825736743       ,  -0.25851100492383788     
   2.6400000000000001       ,    1.2222659980449684       ,  -0.24698856825369050     
   2.6600000000000001       ,    1.0617280791045145       ,  -0.23498373490510910     
   2.6800000000000002       ,   0.87348531035254240       ,  -0.22504792952173214     
   2.7000000000000002       ,   0.66045408188289745       ,  -0.21989403066924090     
   2.7200000000000002       ,   0.42594779753476786       ,  -0.22229405898037904     
   2.7400000000000002       ,   0.17358878188066301       ,  -0.23496939761658606     
   2.7600000000000002       ,   -9.2780427752489278E-002  ,  -0.26047708031777655     
   2.7800000000000002       ,  -0.36918336085106318       ,  -0.30109597486223982     
   2.8000000000000003       ,  -0.65159078148588001       ,  -0.35871685590751329     
   2.8200000000000003       ,  -0.93599451673179745       ,  -0.43474039018307431     
   2.8399999999999999       ,   -1.2184722450122125       ,  -0.52998694289773751     
   2.8599999999999999       ,   -1.4952421142277419       ,  -0.64462185620973256     
   2.8799999999999999       ,   -1.7627066454715645       ,  -0.77809945323071883     
   2.8999999999999999       ,   -2.0174859512043306       ,  -0.92912849416638466     
   2.9199999999999999       ,   -2.2564408301516070       ,   -1.0956611698065732     
   2.9399999999999999       ,   -2.4766867707011540       ,   -1.2749069813111358     
   2.9600000000000000       ,   -2.6756002796779024       ,   -1.4633720477962342     
   2.9800000000000000       ,   -2.8508192380506729       ,   -1.6569235315816604     
   3.0000000000000000       ,   -3.0002391585447321       ,   -1.8508780044251569     
   3.0200000000000000       ,   -3.1220072770524943       ,   -2.0401117272552436     
   3.0400000000000000       ,   -3.2145163506444399       ,   -2.2191900116155421     
   3.0600000000000001       ,   -3.2763998660063880       ,   -2.3825121030867682     
   3.0800000000000001       ,   -3.3065300946518286       ,   -2.5244674030999548     
   3.1000000000000001       ,   -3.3040200813298344       ,   -2.6395983503721081     
   3.1200000000000001       ,   -3.2682302395784659       ,   -2.7227649371113682     
   3.1400000000000001       ,   -3.1987797761549293       ,   -2.7693056535980967     
   3.1600000000000001       ,   -3.0955626986855913       ,   -2.7751896475436473     
   3.1800000000000002       ,   -2.9587677035224673       ,   -2.7371550554380102     
   3.2000000000000002       ,   -2.7889008180862334       ,   -2.6528288092373251     
   3.2200000000000002       ,   -2.5868093068133660       ,   -2.5208237341654245     
   3.2400000000000002       ,   -2.3537050622870344       ,   -2.3408094169241735     
   3.2600000000000002       ,   -2.0911855095560359       ,   -2.1135541173723098     
   3.2800000000000002       ,   -1.8012499638550130       ,   -1.8409358949010539     
   3.3000000000000003       ,   -1.4863094066804627       ,   -1.5259220933614441     
   3.3200000000000003       ,   -1.1491877837988529       ,   -1.1725173424796633     
   3.3400000000000003       ,  -0.79311317713028850       ,  -0.78568125434193425     
   3.3599999999999999       ,  -0.42169755111495527       ,  -0.37121798522284027     
   3.3799999999999999       ,   -3.8904208775832096E-002  ,    6.4359239079744376E-002
   3.3999999999999999       ,   0.35099740538777785       ,   0.51398470505056781     
   3.4199999999999999       ,   0.74348937138062976       ,   0.97021326628374382     
   3.4399999999999999       ,    1.1338746764075487       ,    1.4254046842913968     
   3.4600000000000000       ,    1.5173569994670413       ,    1.8719136873545024     
   3.4800000000000000       ,    1.8891290516733181       ,    2.3022799847236732     
   3.5000000000000000       ,    2.2444671512294736       ,    2.7094124724093289     
   3.5200000000000000       ,    2.5788293165285703       ,    3.0867620600419685     
   3.5400000000000000       ,    2.8879538647343681       ,    3.4284779294882028     
   3.5600000000000001       ,    3.1679553221675265       ,    3.7295425919644116     
   3.5800000000000001       ,    3.4154143978593097       ,    3.9858818218681344     
   3.6000000000000001       ,    3.6274588483434691       ,    4.1944463874024720     
   3.6200000000000001       ,    3.8018322701010643       ,    4.3532634405374031     
   3.6400000000000001       ,    3.9369481903110408       ,    4.4614564385503463     
   3.6600000000000001       ,    4.0319272754407764       ,    4.5192335105252361     
   3.6800000000000002       ,    4.0866160244108274       ,    4.5278452178978261     
   3.7000000000000002       ,    4.1015859378478972       ,    4.4895136518236214     
   3.7200000000000002       ,    4.0781128329949059       ,    4.4073357268572604     
   3.7400000000000002       ,    4.0181366783218504       ,    4.2851643381393263     
   3.7600000000000002       ,    3.9242030244937203       ,    4.1274717200674260     
   3.7800000000000002       ,    3.7993877805849907       ,    3.9391998554994010     
   3.8000000000000003       ,    3.6472076987426836       ,    3.7256031190891230     
   3.8200000000000003       ,    3.4715194614960492       ,    3.4920884861536288     
   3.8400000000000003       ,    3.2764106914262179       ,    3.2440585962204178     
   3.8599999999999999       ,    3.0660865049643764       ,    2.9867627318331493     
   3.8799999999999999       ,    2.8447553976638567       ,    2.7251603688927384     
   3.8999999999999999       ,    2.6165182699042924       ,    2.4638013917841897     
   3.9199999999999999       ,    2.3852642780173143       ,    2.2067263675389768     
   3.9399999999999999       ,    2.1545769306178824       ,    1.9573894659107047     
   3.9600000000000000       ,    1.9276534536237351       ,    1.7186057278725735     
   3.9800000000000000       ,    1.7072399355838925       ,    1.4925234576135806     
   4.0000000000000000       ,    1.4955841578081566       ,    1.2806215778007835     
   4.0199999999999996       ,    1.2944073356112893       ,    1.0837308797723442     
   4.0400000000000000       ,    1.1048952748984930       ,   0.90207725307687980     
   4.0599999999999996       ,   0.92770871126056587       ,   0.73534422331151938     
   4.0800000000000001       ,   0.76301187625458089       ,   0.58275149058723918     
   4.0999999999999996       ,   0.61051765652660095       ,   0.44314566533543526     
   4.1199999999999992       ,   0.46954710296607188       ,   0.31509906003674898     
   4.1399999999999997       ,   0.33910053329892981       ,   0.19701222499663618     
   4.1599999999999993       ,   0.21793707260887255       ,    8.7215917090231548E-002
   4.1799999999999997       ,   0.10465920762995617       ,   -1.5931640659947757E-002
   4.1999999999999993       ,   -2.2011977259864274E-003  ,  -0.11395602333961340     
   4.2199999999999998       ,  -0.10409896206967421       ,  -0.20818973657615439     
   4.2399999999999993       ,  -0.20239709917775747       ,  -0.29970996938341399     
   4.2599999999999998       ,  -0.29829686752948970       ,  -0.38929303132013626     
   4.2799999999999994       ,  -0.39277902509240836       ,  -0.47738678233024828     
   4.2999999999999998       ,  -0.48655843844387459       ,  -0.56410157218583978     
   4.3199999999999994       ,  -0.58005359471084128       ,  -0.64921941138705663     
   4.3399999999999999       ,  -0.67337190844798478       ,  -0.73222032869940001     
   4.3599999999999994       ,  -0.76631103118103572       ,  -0.81232416268204144     
   4.3799999999999999       ,  -0.85837568762907424       ,  -0.88854541328263503     
   4.3999999999999995       ,  -0.94880890806969020       ,  -0.95975826871265313     
   4.4199999999999999       ,   -1.0366359279903805       ,   -1.0247685414899661     
   4.4399999999999995       ,   -1.1207185085946285       ,   -1.0823890093902242     
   4.4600000000000000       ,   -1.1998170158551922       ,   -1.1315145697692026     
   4.4799999999999995       ,   -1.2726572981557422       ,   -1.1711936807722363     
   4.5000000000000000       ,   -1.3379992345645331       ,   -1.2006927755900147     
   4.5199999999999996       ,   -1.3947037933171882       ,   -1.2195506854445812     
   4.5400000000000000       ,   -1.4417955432627787       ,   -1.2276205772192337     
   4.5599999999999996       ,   -1.4785177942220453       ,   -1.2250974816418065     
   4.5800000000000001       ,   -1.5043778943290338       ,   -1.2125301328879872     
