r(A) ,   X_ray-calc  ,   X_ray_exp_renorm
   2.0000000000000000E-002  ,  -0.25325331433893633       ,   -1.1550453471991708     
   4.0000000000000001E-002  ,  -0.32136225498961718       ,   -1.2035359091133038     
   5.9999999999999998E-002  ,  -0.43266618046615934       ,   -1.2828117826702694     
   8.0000000000000002E-002  ,  -0.58392757807828433       ,   -1.3906145848639737     
  0.10000000000000001       ,  -0.77076888123635612       ,   -1.5238889992233915     
  0.12000000000000001       ,  -0.98782064977728568       ,   -1.6788845977428486     
  0.13999999999999999       ,   -1.2289027013114411       ,   -1.8512803795028148     
  0.16000000000000000       ,   -1.4872316432323494       ,   -2.0363275742594014     
  0.17999999999999999       ,   -1.7556473196629738       ,   -2.2290056206894437     
  0.19999999999999998       ,   -2.0268500327109482       ,   -2.4241857795299389     
  0.22000000000000000       ,   -2.2936400468538025       ,   -2.6167965977402310     
  0.23999999999999999       ,   -2.5491508513038044       ,   -2.8019854094211878     
  0.26000000000000001       ,   -2.7870679379411163       ,   -2.9752702427990094     
  0.28000000000000003       ,   -3.0018254399108955       ,   -3.1326768922704016     
  0.30000000000000004       ,   -3.1887738447352505       ,   -3.2708564946801904     
  0.32000000000000001       ,   -3.3443131116342326       ,   -3.3871796968826935     
  0.34000000000000002       ,   -3.4659868422418540       ,   -3.4798043881973415     
  0.36000000000000004       ,   -3.5525346260207153       ,   -3.5477149624805944     
  0.38000000000000000       ,   -3.6039012498272647       ,   -3.5907321322962273     
  0.40000000000000002       ,   -3.6212030652838108       ,   -3.6094934018816516     
  0.42000000000000004       ,   -3.6066533868579160       ,   -3.6054053753413280     
  0.44000000000000000       ,   -3.5634502881312544       ,   -3.5805700916496241     
  0.46000000000000002       ,   -3.4956315175691337       ,   -3.5376885008873344     
  0.48000000000000004       ,   -3.4079024178470108       ,   -3.4799449927456152     
  0.50000000000000000       ,   -3.3054436617944516       ,   -3.4108775298706027     
  0.52000000000000002       ,   -3.1937062798956335       ,   -3.3342384024099636     
  0.54000000000000004       ,   -3.0782018261644697       ,   -3.2538508904595980     
  0.56000000000000005       ,   -2.9642955995489322       ,   -3.1734671898271012     
  0.58000000000000007       ,   -2.8570106069610643       ,   -3.0966328232436808     
  0.59999999999999998       ,   -2.7608494333451992       ,   -3.0265624312152983     
  0.62000000000000000       ,   -2.6796403967214757       ,   -2.9660313288315145     
  0.64000000000000001       ,   -2.6164133448159070       ,   -2.9172865485130175     
  0.66000000000000003       ,   -2.5733092363997074       ,   -2.8819802911896049     
  0.68000000000000005       ,   -2.5515262935550664       ,   -2.8611278118055825     
  0.70000000000000007       ,   -2.5513040646121086       ,   -2.8550908048384485     
  0.72000000000000008       ,   -2.5719452582786690       ,   -2.8635863692149326     
  0.73999999999999999       ,   -2.6118737550531890       ,   -2.8857206576947037     
  0.76000000000000001       ,   -2.6687258283907713       ,   -2.9200453906233870     
  0.78000000000000003       ,   -2.7394703676034577       ,   -2.9646345727273498     
  0.80000000000000004       ,   -2.8205528337344896       ,   -3.0171780254473251     
  0.82000000000000006       ,   -2.9080568377843656       ,   -3.0750877624517923     
  0.84000000000000008       ,   -2.9978766378825683       ,   -3.1356128128848493     
  0.85999999999999999       ,   -3.0858935284469520       ,   -3.1959578495061418     
  0.88000000000000000       ,   -3.1681490494788487       ,   -3.2534009140901508     
  0.90000000000000002       ,   -3.2410081763320044       ,   -3.3054056500172377     
  0.92000000000000004       ,   -3.3013061471672698       ,   -3.3497237445834207     
  0.94000000000000006       ,   -3.3464733242288887       ,   -3.3844837371669265     
  0.96000000000000008       ,   -3.3746334341800588       ,   -3.4082629439569705     
  0.97999999999999998       ,   -3.3846716522514795       ,   -3.4201399602315949     
   1.0000000000000000       ,   -3.3762702388788015       ,   -3.4197259978091830     
   1.0200000000000000       ,   -3.3499107554591436       ,   -3.4071741660305217     
   1.0400000000000000       ,   -3.3068432251332029       ,   -3.3831666755877960     
   1.0600000000000001       ,   -3.2490239121571660       ,   -3.3488808015997336     
   1.0800000000000001       ,   -3.1790246183868782       ,   -3.3059352525235361     
   1.1000000000000001       ,   -3.0999174904319649       ,   -3.2563193241607999     
   1.1200000000000001       ,   -3.0151402546041686       ,   -3.2023078460662244     
   1.1400000000000001       ,   -2.9283475145956466       ,   -3.1463654285643212     
   1.1600000000000001       ,   -2.8432542331251436       ,   -3.0910438751445444     
   1.1799999999999999       ,   -2.7634777572767346       ,   -3.0388768260152728     
   1.2000000000000000       ,   -2.6923847316169600       ,   -2.9922757391113755     
   1.2200000000000000       ,   -2.6329489772135535       ,   -2.9534311963099609     
   1.2400000000000000       ,   -2.5876259120531584       ,   -2.9242232526493588     
   1.2600000000000000       ,   -2.5582483719081517       ,   -2.9061441383965794     
   1.2800000000000000       ,   -2.5459477914554718       ,   -2.9002360964400569     
   1.3000000000000000       ,   -2.5511036612577302       ,   -2.9070465135853949     
   1.3200000000000001       ,   -2.5733230301879511       ,   -2.9266018101125639     
   1.3400000000000001       ,   -2.6114506215950404       ,   -2.9584008158390134     
   1.3600000000000001       ,   -2.6636089231203628       ,   -3.0014276123952701     
   1.3800000000000001       ,   -2.7272664423851767       ,   -3.0541830897757034     
   1.4000000000000001       ,   -2.7993312393087080       ,   -3.1147337784791298     
   1.4200000000000002       ,   -2.8762658920850614       ,   -3.1807759023041813     
   1.4399999999999999       ,   -2.9542192637003617       ,   -3.2497120733375282     
   1.4600000000000000       ,   -3.0291698381722130       ,   -3.3187376379123550     
   1.4800000000000000       ,   -3.0970750112578664       ,   -3.3849333935469295     
   1.5000000000000000       ,   -3.1540205612556189       ,   -3.4453612400994289     
   1.5200000000000000       ,   -3.1963645946408592       ,   -3.4971593061624158     
   1.5400000000000000       ,   -3.2208705524523680       ,   -3.5376332012418441     
   1.5600000000000001       ,   -3.2248243616603678       ,   -3.5643402775397526     
   1.5800000000000001       ,   -3.2061314982889972       ,   -3.5751641295066068     
   1.6000000000000001       ,   -3.1633905659437933       ,   -3.5683769980040974     
   1.6200000000000001       ,   -3.0959409490589977       ,   -3.5426882588995836     
   1.6400000000000001       ,   -3.0038831349229973       ,   -3.4972777407989466     
   1.6600000000000001       ,   -2.8880713701627800       ,   -3.4318132096178640     
   1.6800000000000002       ,   -2.7500793829056196       ,   -3.3464519546078311     
   1.7000000000000000       ,   -2.5921409193010772       ,   -3.2418269877245569     
   1.7200000000000000       ,   -2.4170677731409005       ,   -3.1190189038483904     
   1.7400000000000000       ,   -2.2281487948076588       ,   -2.9795149237664291     
   1.7600000000000000       ,   -2.0290340211008564       ,   -2.8251570385905098     
   1.7800000000000000       ,   -1.8236085476497363       ,   -2.6580814807521227     
   1.8000000000000000       ,   -1.6158610550938513       ,   -2.4806519543786614     
   1.8200000000000001       ,   -1.4097519914070273       ,   -2.2953891625897498     
   1.8400000000000001       ,   -1.2090863061820456       ,   -2.1048991713449481     
   1.8600000000000001       ,   -1.0173953368481230       ,   -1.9118030534634884     
   1.8800000000000001       ,  -0.83783197758208361       ,   -1.7186700707785403     
   1.9000000000000001       ,  -0.67308264168614484       ,   -1.5279563889592309     
   1.9200000000000002       ,  -0.52529878565189059       ,   -1.3419509930015985     
   1.9399999999999999       ,  -0.39604993058962701       ,   -1.1627300984830096     
   1.9600000000000000       ,  -0.28629922970200355       ,  -0.99212095237984810     
   1.9800000000000000       ,  -0.19640172598636058       ,  -0.83167550597822948     
   2.0000000000000000       ,  -0.12612455922296290       ,  -0.68265403917445877     
   2.0200000000000000       ,   -7.4687550787236698E-002  ,  -0.54601843709059938     
   2.0400000000000000       ,   -4.0821851120480215E-002  ,  -0.42243448135252526     
   2.0600000000000001       ,   -2.2843705707747769E-002  ,  -0.31228223202592093     
   2.0800000000000001       ,   -1.8739903679679593E-002  ,  -0.21567335154262487     
   2.1000000000000001       ,   -2.6261135021913920E-002  ,  -0.13247406514575563     
   2.1200000000000001       ,   -4.3019307448184413E-002  ,   -6.2332366150091169E-002
   2.1400000000000001       ,   -6.6584864880867678E-002  ,   -4.7080579130613729E-003
   2.1600000000000001       ,   -9.4580301839539804E-002  ,    4.1095726193830555E-002
   2.1800000000000002       ,  -0.12476637089294351       ,    7.5900775349777683E-002
   2.2000000000000002       ,  -0.15511791668998934       ,   0.10062291952380603     
   2.2200000000000002       ,  -0.18388681778346497       ,   0.11624291144303478     
   2.2400000000000002       ,  -0.20965015020148753       ,   0.12377975046555126     
   2.2600000000000002       ,  -0.23134237528969095       ,   0.12426689541575975     
   2.2800000000000002       ,  -0.24827106790678052       ,   0.11873158460535890     
   2.3000000000000003       ,  -0.26011640850562845       ,   0.10817726751572751     
   2.3200000000000003       ,  -0.26691533393707273       ,    9.3568965405849094E-002
   2.3399999999999999       ,  -0.26903184927392515       ,    7.5821226973165609E-002
   2.3599999999999999       ,  -0.26711552234334879       ,    5.5788237306710758E-002
   2.3799999999999999       ,  -0.26205059419913235       ,    3.4255578216756268E-002
   2.3999999999999999       ,  -0.25489842789303574       ,    1.1933127205293053E-002
   2.4199999999999999       ,  -0.24683617578006581       ,   -1.0551380459827023E-002
   2.4399999999999999       ,  -0.23909456937811546       ,   -3.2658521020011787E-002
   2.4600000000000000       ,  -0.23289762865622077       ,   -5.3943359029950198E-002
   2.4800000000000000       ,  -0.22940685844302203       ,   -7.4061761292387715E-002
   2.5000000000000000       ,  -0.22967216254963937       ,   -9.2776813225742424E-002
   2.5200000000000000       ,  -0.23459127981046549       ,  -0.10996513265075759     
   2.5400000000000000       ,  -0.24487905276676558       ,  -0.12562271184669632     
   2.5600000000000001       ,  -0.26104730388266834       ,  -0.13986977279711299     
   2.5800000000000001       ,  -0.28339554209505496       ,  -0.15295400401832482     
   2.6000000000000001       ,  -0.31201218043731560       ,  -0.16525146999293555     
   2.6200000000000001       ,  -0.34678543870905520       ,  -0.17726445376966732     
   2.6400000000000001       ,  -0.38742265681857496       ,  -0.18961551503773602     
   2.6600000000000001       ,  -0.43347637447727932       ,  -0.20303712244056027     
   2.6800000000000002       ,  -0.48437525733497122       ,  -0.21835634956170011     
   2.7000000000000002       ,  -0.53945777968431907       ,  -0.23647430533672892     
   2.7200000000000002       ,  -0.59800651566399921       ,  -0.25834019509545603     
   2.7400000000000002       ,  -0.65928094522698921       ,  -0.28492016877118076     
   2.7600000000000002       ,  -0.72254684345452780       ,  -0.31716139643765279     
   2.7800000000000002       ,  -0.78710058246274461       ,  -0.35595210482247125     
   2.8000000000000003       ,  -0.85228701996798628       ,  -0.40207859713944732     
   2.8200000000000003       ,  -0.91751005946901765       ,  -0.45618054727412694     
   2.8399999999999999       ,  -0.98223542287452426       ,  -0.51870609301475712     
   2.8599999999999999       ,   -1.0459856541383183       ,  -0.58986843752604301     
   2.8799999999999999       ,   -1.1083278480087371       ,  -0.66960579112237750     
   2.8999999999999999       ,   -1.1688550474788972       ,  -0.75754653640015146     
   2.9199999999999999       ,   -1.2271626543499157       ,  -0.85298147157700477     
   2.9399999999999999       ,   -1.2828215292272374       ,  -0.95484487540504714     
   2.9600000000000000       ,   -1.3353497032572166       ,   -1.0617059418406392     
   2.9800000000000000       ,   -1.3841847710224036       ,   -1.1717718571052473     
   3.0000000000000000       ,   -1.4286590739392715       ,   -1.2829034429702162     
   3.0200000000000000       ,   -1.4679797129717238       ,   -1.3926438787394184     
   3.0400000000000000       ,   -1.5012152504179068       ,   -1.4982605544306515     
   3.0600000000000001       ,   -1.5272906800098249       ,   -1.5967996157576199     
   3.0800000000000001       ,   -1.5449918744771671       ,   -1.6851522564914705     
   3.1000000000000001       ,   -1.5529802762742031       ,   -1.7601313158060621     
   3.1200000000000001       ,   -1.5498181001555613       ,   -1.8185562680031833     
   3.1400000000000001       ,   -1.5340037882417958       ,   -1.8573442699690976     
   3.1600000000000001       ,   -1.5040169233906051       ,   -1.8736045770278760     
   3.1800000000000002       ,   -1.4583712899813572       ,   -1.8647333676773583     
   3.2000000000000002       ,   -1.3956742970544986       ,   -1.8285058463331152     
   3.2200000000000002       ,   -1.3146905699830984       ,   -1.7631624314637340     
   3.2400000000000002       ,   -1.2144071937487952       ,   -1.6674858911099306     
   3.2600000000000002       ,   -1.0940978701807500       ,   -1.5408664610131928     
   3.2800000000000002       ,  -0.95338314562586668       ,   -1.3833522700382797     
   3.3000000000000003       ,  -0.79228388199186961       ,   -1.1956827961565359     
   3.3200000000000003       ,  -0.61126528521182200       ,  -0.97930357233357979     
   3.3400000000000003       ,  -0.41126906776354960       ,  -0.73636093943332748     
   3.3599999999999999       ,  -0.19373169744345284       ,  -0.46967628327472205     
   3.3799999999999999       ,    3.9412840385979357E-002  ,  -0.18269987288857631     
   3.3999999999999999       ,   0.28574678340377502       ,   0.12055488765419273     
   3.4199999999999999       ,   0.54239923602713702       ,   0.43559529638019356     
   3.4399999999999999       ,   0.80609346535079507       ,   0.75754913301440885     
   3.4600000000000000       ,    1.0732099389204666       ,    1.0812776465284035     
   3.4800000000000000       ,    1.3398635531252978       ,    1.4014985122596320     
   3.5000000000000000       ,    1.6019929057685043       ,    1.7129151208520643     
   3.5200000000000000       ,    1.8554589420056848       ,    2.0103482830777071     
   3.5400000000000000       ,    2.0961498719738088       ,    2.2888662899366738     
   3.5600000000000001       ,    2.3200889401170621       ,    2.5439092637477700     
   3.5800000000000001       ,    2.5235414350688448       ,    2.7714038754227497     
   3.6000000000000001       ,    2.7031172745219538       ,    2.9678647825452047     
   3.6200000000000001       ,    2.8558655858555348       ,    3.1304795536769641     
   3.6400000000000001       ,    2.9793579287231688       ,    3.2571743728406268     
   3.6600000000000001       ,    3.0717571629973115       ,    3.3466584461244033     
   3.6800000000000002       ,    3.1318694416591422       ,    3.3984457376353134     
   3.7000000000000002       ,    3.1591773857545120       ,    3.4128534192881657     
   3.7200000000000002       ,    3.1538531555288625       ,    3.3909772007051364     
   3.7400000000000002       ,    3.1167508430950503       ,    3.3346444832497588     
   3.7600000000000002       ,    3.0493783499534133       ,    3.2463470273577073     
   3.7800000000000002       ,    2.9538496486478780       ,    3.1291555073834925     
   3.8000000000000003       ,    2.8328190330527092       ,    2.9866189278481148     
   3.8200000000000003       ,    2.6893996086285674       ,    2.8226523671032386     
   3.8400000000000003       ,    2.5270688371195509       ,    2.6414168808992060     
   3.8599999999999999       ,    2.3495644075406275       ,    2.4471956257773351     
   3.8799999999999999       ,    2.1607740390809100       ,    2.2442703424928703     
   3.8999999999999999       ,    1.9646230188011644       ,    2.0368022702981556     
   3.9199999999999999       ,    1.7649633302577241       ,    1.8287213470582155     
   3.9399999999999999       ,    1.5654681367102128       ,    1.6236271965931377     
   3.9600000000000000       ,    1.3695351484453888       ,    1.4247049273377861     
   3.9800000000000000       ,    1.1802020376852185       ,    1.2346581840610846     
   4.0000000000000000       ,    1.0000765814827854       ,    1.0556612296305332     
   4.0199999999999996       ,   0.83128363249071580       ,   0.88933111234197149     
   4.0400000000000000       ,   0.67543036286039249       ,   0.73672022391298297     
   4.0599999999999996       ,   0.53359052398506124       ,   0.59832880257733989     
   4.0800000000000001       ,   0.40630774229195993       ,   0.47413621336895417     
   4.0999999999999996       ,   0.29361715740136379       ,   0.36364917091787069     
   4.1199999999999992       ,   0.19508403174908073       ,   0.26596448381830912     
   4.1399999999999997       ,   0.10985734658909568       ,   0.17984341547742255     
   4.1599999999999993       ,    3.6735871793088522E-002  ,   0.10379439176674642     
   4.1799999999999997       ,   -2.5756223993901449E-002  ,    3.6160553416046258E-002
   4.1999999999999993       ,   -7.9287455004083643E-002  ,   -2.4791441738207590E-002
   4.2199999999999998       ,  -0.12563419012511420       ,   -8.0784913006858750E-002
   4.2399999999999993       ,  -0.16659634175338370       ,  -0.13345230785097828     
   4.2599999999999998       ,  -0.20391689041148942       ,  -0.18426305536404086     
   4.2799999999999994       ,  -0.23920832487192817       ,  -0.23446273920789251     
   4.2999999999999998       ,  -0.27388871933858139       ,  -0.28502568253934635     
   4.3199999999999994       ,  -0.30912970798447470       ,  -0.33662243951893900     
   4.3399999999999999       ,  -0.34581807304134871       ,  -0.38960304141722507     
   4.3599999999999994       ,  -0.38453205905938415       ,  -0.44399617668631686     
   4.3799999999999999       ,  -0.42553288845474130       ,  -0.49952382080738467     
   4.3999999999999995       ,  -0.46877130868715711       ,  -0.55563019992502816     
   4.4199999999999999       ,  -0.51390837599887096       ,  -0.61152339733621930     
   4.4399999999999995       ,  -0.56034910012452821       ,  -0.66622741634686544     
   4.4600000000000000       ,  -0.60728706211635208       ,  -0.71864211591748617     
   4.4799999999999995       ,  -0.65375769367743708       ,  -0.76760815176344011     
   4.5000000000000000       ,  -0.69869758749852073       ,  -0.81197389525950292     
   4.5199999999999996       ,  -0.74100700582888879       ,  -0.85066127058825525     
   4.5400000000000000       ,  -0.77961267565482051       ,  -0.88272754673766918     
   4.5599999999999996       ,  -0.81352800494512034       ,  -0.90742033962855007     
   4.5800000000000001       ,  -0.84190802174023471       ,  -0.92422341031068389     
